emg_0,emg_1,emg_2,emg_3,emg_4,emg_5,emg_6,emg_7
-8.122835518859006232e-02,-8.340108574987370460e-02,-9.182817555861033654e-02,1.776753304648308607e-01,1.690093381450221699e-01,-2.170987101768773186e-02,9.116397444264023875e-02,-5.536621316589018793e-02
-6.453883123716175341e-01,1.477329651334886584e-01,1.518065441816909722e+00,4.246572985669450517e+00,1.711491770343157270e+01,2.637797607036654313e+01,-1.644908325782032943e+00,-7.840670939684897256e-01
-2.984996381170137436e-01,-7.046216692427877959e-01,1.402062524706042534e+00,5.034939438045699767e+00,2.282534761802189394e+01,3.665188123874103354e+01,-1.949288313012304208e+00,-8.665608453337472206e-01
-3.162817402265889477e-01,4.380448111971830816e-01,2.808067467469385292e+00,5.039995936119828102e+00,2.149304847094332871e+01,3.367714504008591092e+01,-1.382565461279281260e+00,-5.791770028984788432e-02
4.427062091321224635e+00,3.963580025540256901e+00,3.229224374132351194e+00,5.095275555158390368e+00,1.490079081989306964e+01,2.138859717358408830e+01,4.231011181217725792e+00,4.651157470951579498e+00
1.028773857292451410e+00,3.322307556373416126e-01,-1.101433455976645437e+00,-1.888437993404407322e+00,-3.026087014714743617e+00,-1.846726446012468159e+00,1.049751998728861935e+00,1.202384722792782412e+00
4.364962604020653281e+00,3.636986491735273663e+00,8.888057924790149222e-01,-2.677578508105881383e+00,-1.663976903047915101e+01,-1.988346995679698637e+01,6.071326342732601411e+00,6.446531676137661648e+00
4.590832166010476278e+00,4.877158732418754639e+00,1.199879269134042969e+00,-3.682704168869596284e+00,-2.398947901652702086e+01,-2.624235774364565543e+01,6.387048347690685191e+00,5.960165817598017668e+00
2.531150272908955223e+00,2.814663193753817794e+00,-2.846684629323967819e-01,-3.389412141154839020e+00,-2.352371626704283614e+01,-2.569810633959356139e+01,1.197359970624332526e+00,1.517506824519857744e+00
6.800388692787014300e+00,8.371311569047378498e+00,7.108100838941757260e+00,7.307270580835723450e+00,-9.585527382531758178e+00,-8.369828911576355779e+00,1.903140578144793427e+00,4.787973216371861795e+00
5.092089988786019816e+00,5.023846957186624884e+00,4.840065309285286332e+00,6.440097893219111747e+00,3.930836254466168356e+00,6.803694263209081328e-02,7.786059196973540431e-01,3.245253016160883242e+00
-3.502809752766702367e+00,-2.492120521975594194e+00,-2.468897156780482938e-01,2.474004847246371597e+00,1.712264979581021862e+01,1.601629978966601797e+01,-6.551006555938103659e+00,-5.186417065904439738e+00
-5.799340767098554394e+00,-5.074942227214018331e+00,-1.553380485341414374e+00,3.062853002017169146e+00,2.703908676028671465e+01,4.143725275274221076e+01,-3.416956044560651495e+00,-5.756820932072860941e+00
-5.937604157026018292e+00,-6.648998184695599889e+00,-3.343811603655858278e+00,-2.922787531749919676e-01,2.175144479834637323e+01,3.100687467196001990e+01,-1.225514312164627029e+00,-4.451917971663106322e+00
-3.554400954626910192e+00,-4.079467079338101598e+00,-1.918029545462784036e+00,-2.301676340761518169e+00,8.611550735344113860e+00,1.625813183703650111e+01,-8.967201983673906973e-01,-2.474541411020346082e+00
-7.621086136425327950e-01,-1.300876938960236373e+00,-1.546681802016677043e+00,-6.415086020336914885e+00,-9.170089037452925140e+00,-1.263763026700821968e+01,-2.628807949703794833e+00,-8.583856630897228612e-01
-1.885263922917408408e-01,-7.007885972818455045e-01,-1.879377838129509204e+00,-7.559038940638322934e+00,-2.695510163873593967e+01,-6.267977768753918610e+01,-1.655085155049922374e+00,-9.256768397478856159e-01
-1.965811306990750129e+00,-2.701566949592833833e+00,-4.132301957913335322e+00,-7.442547520118538706e+00,-3.213594289998219722e+01,-7.193165008781903680e+01,1.168301306833015474e+00,-7.245460858805157223e-01
3.769934903102720725e-01,-9.180078433158906925e-01,-2.075506685315147148e+00,-2.341622975339865853e+00,-1.777209318470058008e+01,-2.546361282214250465e+01,3.436193411070898485e+00,1.180868617904438533e+00
-3.707644573804468990e+00,-3.944302716865743186e+00,-4.002020264925587156e+00,-3.583140004174727444e+00,3.054792916374182710e-02,1.914352147006695759e+01,-9.164727488201827033e-01,-3.379207743989623758e+00
7.513582830359450959e-01,5.633873206537103329e-01,1.842596642885866665e+00,2.931646971660525125e+00,9.370007036715845672e+00,2.689787388403154722e+01,1.791072456417892589e+00,8.814051895228156575e-01
-3.147661788013379258e+00,-2.547564275557676616e+00,-3.421071478087627238e-01,4.123157709957204098e+00,1.573985351221720741e+01,2.745788752962668866e+01,-3.254434450229232390e+00,-2.987042682839517571e+00
-8.995047213906299799e-01,-4.967475210565359678e-01,9.157419648483196006e-01,6.427022434510799798e+00,2.314124395969138348e+01,3.435156713222760061e+01,-1.060475668951961215e+00,-8.100399543530324431e-01
2.460034568698000523e+00,3.754148155129302111e+00,3.483777954693927814e+00,5.784988028963142348e+00,2.202973023792777951e+01,3.145293862089021886e+01,1.043796122077211841e+00,2.011586367413818799e+00
3.678897261956970866e+00,4.960427884619577732e+00,4.905705332495781335e+00,5.554669147900475501e+00,1.430452759265555152e+01,1.850496016160483848e+01,1.794063558445689655e+00,3.853620430039709888e+00
-8.924912967289584387e-01,-1.137191709044363286e+00,-1.979058233814792178e+00,-2.768608124224707367e+00,-1.729079017941348440e+00,-1.445903156939500889e+00,-3.205458707664173623e+00,-1.407885763826436598e+00
1.041664809858819929e+00,4.646143610703701299e-01,-1.008395484409980281e+00,-1.915797909439611146e+00,-1.315482355487042199e+01,-1.681858120380359267e+01,1.090921209548633142e-01,9.112637180353482247e-01
-1.399395340256244236e+00,-2.582609824032615187e+00,-4.776528798701900946e+00,-9.016911028006042272e+00,-2.609875687131555111e+01,-3.254301436640719203e+01,-6.806213460170704721e-01,-1.404670144297260226e+00
2.325524674046901552e+00,9.384709797163108824e-01,-2.098059993952387181e+00,-6.606529003604383554e+00,-2.253277569589763729e+01,-2.940196769681997679e+01,2.428298440148230153e+00,2.683491835740597242e+00
4.313205356565899429e+00,4.900839980470787616e+00,3.604801506543722667e+00,3.563456798722011598e+00,-8.039055254814888585e+00,-1.615415579511459754e+01,2.633047543566929605e+00,4.181505600761142638e+00
5.101232321968572236e+00,6.007090891353617401e+00,5.428795049421104579e+00,6.156883457312171792e+00,2.657595220380732925e+00,-1.252870029362927795e+00,1.519264425184549738e+00,3.577909963248608882e+00
1.739630200185030784e+00,2.298793207765826185e+00,2.216860032530928670e+00,5.245232122585524515e+00,1.456146965853464792e+01,1.824029120405265658e+01,-5.506700267837856266e-01,7.522581893563780042e-01
-4.380727510181028350e-01,8.533881743234021933e-01,1.900939357248823569e+00,5.261444676440536483e+00,1.953977563603883283e+01,2.396201522219189783e+01,-1.154105883124418419e+00,-1.180839610019478236e+00
-1.851139542843004193e+00,-1.402108175862728956e+00,7.806575032456071206e-01,3.193463847711926817e+00,1.708167777896702333e+01,2.097141496609580358e+01,1.786184517104560943e-01,-1.784137095488596669e+00
-1.338364598290035845e+00,-1.619360720465349068e+00,8.042358830753386645e-01,1.220777605436246027e+00,9.339064630470602424e+00,1.296623430971059143e+01,6.931717860027311051e-01,-5.986604134439847957e-01
-3.969634302895100664e+00,-3.243026213132131019e+00,-2.957000164127036701e+00,-4.357735902678546935e+00,-4.628105504645766644e+00,-4.723562178303152947e+00,-3.053295530073061759e+00,-3.447962269676620117e+00
1.762785085384795725e+00,1.130895912683690163e+00,-1.297947394574853197e-01,-4.444901993750964841e+00,-1.449409480359123492e+01,-1.885911858412470821e+01,1.023721217711091480e+00,1.862881603348439885e+00
-1.224332612821514399e+00,-1.348070899511781828e+00,5.252153180867609183e-01,-6.725464712024725067e+00,-1.952339884721162733e+01,-2.634847482512845218e+01,2.557312088877363165e-01,-8.293169306095966586e-01
-4.720433858528596538e-01,-3.895779910992289707e-01,2.099867847926127684e+00,-1.218863694298928380e-01,-1.302394778951704168e+01,-1.837629617170489738e+01,4.161008544327655656e+00,9.831597963258833506e-01
-1.132756954657713422e+00,-3.648926055662823575e+00,-6.018188297809770049e+00,-4.549129280554049082e+00,-9.035518564737790470e+00,-1.204416828323855349e+01,2.922379450566228609e+00,7.839270829014171049e-01
-4.785274174504258404e+00,-6.098716200549315403e+00,-4.969565116714265152e+00,-2.742192945954164074e+00,1.334412842054359061e+00,-1.680737011413775406e+00,-5.172981357251220658e+00,-5.445861217141981570e+00
-4.377635729823754041e+00,-4.594189848014242017e+00,-4.055034188199247325e+00,-1.244329856175701465e+00,7.582919423638244893e+00,1.194931579040286884e+01,-5.457065443510302316e+00,-4.952391355642043358e+00
-2.408610173039000824e+00,-1.277187730464620863e+00,1.365584982590908325e-01,2.219824909129278545e+00,1.061445776410692332e+01,1.825627446086462413e+01,-3.986098357816298510e+00,-3.315668373464688123e+00
2.446076435077834788e+00,2.978198811904116283e+00,2.680432762450982498e+00,6.495778811365931382e+00,1.481582098930066849e+01,2.427182272410415109e+01,1.123350722717484373e+00,1.684332313965610339e+00
3.893317000037156195e+00,3.701676528944660927e+00,1.598175835896993302e+00,5.173979851154756560e+00,1.493118769142544622e+01,2.494647562981155886e+01,3.699765773872857988e+00,4.443121988096710773e+00
5.033988310586180681e+00,6.155940321949542771e+00,5.393227458009141273e+00,4.771854385442910740e+00,7.359222774342756068e+00,1.279872977754854446e+01,2.743393415563486926e+00,4.244356591904781872e+00
4.522122071085631134e+00,5.291403925815822973e+00,4.376556741696013830e+00,1.991133982723033213e+00,-5.795816609843596368e+00,-9.392921653358357048e+00,2.779883691959498471e+00,3.934817759681001448e+00
-1.818705738176233044e+00,-1.808945004914963128e+00,-3.603136755872700547e+00,-7.220918296832542715e+00,-1.787472243142585882e+01,-2.588490811493204191e+01,-3.362406975202283377e-01,-5.127293050419163833e-01
-6.205568111311312585e-01,-7.951195234206220874e-01,-2.952676623667062739e+00,-5.732543778457042549e+00,-1.726466707854631366e+01,-2.405115329060425466e+01,1.325319802050716866e+00,5.308102538041139518e-01
-2.179182799885336141e+00,-2.524333971963139245e+00,-3.426439124610147324e+00,-4.109866857003802387e+00,-1.280353661360778439e+01,-1.727768072129453003e+01,-8.274342721721230642e-01,-1.768364625944959467e+00
1.891271540342961632e+00,1.841493602882185776e+00,2.379243382735453771e+00,1.898268384794075114e+00,-2.384546521459824930e-01,-3.210317931330699537e+00,-2.219394256498604667e-01,1.407740982382294170e+00
7.682251466813594387e-02,2.676682215916191820e-01,1.546805594202631084e+00,2.560449318950507980e+00,1.083399405396344761e+01,1.049321010582121616e+01,-2.108490708054215013e+00,-6.619673743535769983e-01
-2.265497389223443570e+00,-2.603414702525206348e+00,-2.813903324249055204e-01,3.421151811534383302e+00,1.841399859917405735e+01,1.967320773902902076e+01,-2.967130926981955241e+00,-3.406352133469922716e+00
-1.343124132135836479e+00,-1.888817316088394316e+00,1.768402285782627037e-01,3.664963662313416748e+00,1.440082421857339767e+01,1.850791286107233802e+01,-1.440760748758092014e+00,-1.277606015485677204e+00
-2.912328960311858506e-01,-2.068067961935327048e-01,6.329582312992216853e-01,1.169007366718331165e+00,8.803477838152499402e+00,2.034906106490477740e+01,-1.013567539149030861e+00,4.512234778259105461e-02
-4.497724183704395529e+00,-3.758197588072583084e+00,-3.738900903254513963e+00,-5.006613600198281055e+00,-9.831191218391577280e-01,6.011472482735882750e+00,-4.536248015763176156e+00,-4.405050975909297506e+00
5.904009394100837582e-01,1.445902643472454230e-01,-4.641006867527838198e-01,-2.907041009763302597e+00,-1.176658476614442961e+01,-8.807373399556961857e+00,6.481846219760027950e-01,3.016524501466211206e-02
8.099439212630617391e+00,8.536994534588542294e+00,8.011989418654700046e+00,6.629028881877305324e+00,-1.666390526390169669e+01,-3.808949605646266434e+01,7.705895883269597846e+00,7.216885383194265202e+00
3.657863834139734038e+00,3.438641203766541921e+00,2.383461289049840115e+00,-1.102498695262751793e+00,-2.333668890637235904e+01,-5.800560658382309498e+01,3.219720552127492752e+00,3.009032700035818131e+00
2.781433312397756374e-01,9.426942818517192180e-02,-8.504395212159641115e-01,-3.989198087036898599e+00,-1.423269945380233281e+01,-2.072457401246765585e+01,1.726723109424020297e+00,2.660391099510868163e-01
2.990637881713267276e-01,-1.829687795870065248e-01,-2.939237857920535824e-01,-6.635356035785462403e-01,1.301842724488951930e+01,2.973533377756384510e+01,1.911316869123487638e+00,1.225360869128304220e+00
-2.361346936429315146e+00,-3.402693901203845073e+00,-4.557765191464640431e+00,-1.654962884553904834e+00,2.001764116857078335e+01,4.310622995559405979e+01,4.733917411008459197e-02,-8.797188746146664684e-01
-4.903568233702791268e+00,-4.728762707729657677e+00,-3.501878581893062226e+00,2.092472300124788465e+00,1.570256963078614554e+01,2.531450091132155933e+01,-3.840196076226917832e+00,-4.658646978010903439e+00
3.716643530159826625e-01,1.255642290878693945e+00,3.101608757654312321e+00,4.962591699751827790e+00,1.287452441844422779e+01,1.834142026115418034e+01,1.503008221818003420e+00,-2.140459968662100643e-02
1.616757899119019903e+00,1.415888082100880130e+00,2.528657333672357233e+00,3.364027941733682248e+00,7.418854814680102550e+00,4.689064361981678530e+00,2.442353067485180773e+00,2.424758262146871957e+00
-1.575884535161198308e+00,-2.103163892398488333e+00,-1.907002591227508814e+00,-3.933185536827507711e+00,-5.297870792332727063e+00,-1.194921278930393527e+01,-4.711440086305285213e-01,-3.182535374381271209e-01
-5.516711094260250192e+00,-5.778865951072514662e+00,-6.747851238401469054e+00,-9.284762588715448572e+00,-1.338026747636244806e+01,-1.478181263469135054e+01,-3.699653247177014492e+00,-4.408829299771793941e+00
-8.681166610512640602e-01,2.060571914659101722e-01,-1.547563519195559234e+00,-2.211549900924031142e+00,-1.034452012166786794e+01,-1.123352561363741842e+01,-2.968041431959650645e+00,-1.840702917371386249e+00
6.229600908768480494e+00,7.671835107431005163e+00,5.440891707266415800e+00,4.210987051115748336e+00,-9.102516613647647858e+00,-1.170842587856546757e+01,1.614738181926527183e-01,4.167154935017622464e+00
1.638990737102136608e+00,2.731699554745641745e+00,2.138684427481372996e+00,1.697520967354798627e+00,-9.550590787295480055e+00,-1.155710758010586758e+01,-3.838476980124471805e+00,-3.663787024956893790e-01
-1.613539332238616009e+00,-1.712505100841321459e+00,-1.275454929745887700e+00,-1.403758110167915296e-01,-3.961653341739904022e+00,-5.307044174429407235e-01,-3.582457848072717610e+00,-2.701689592900009096e+00
-8.526845867479897478e-01,-4.363134260294068145e-01,2.399893307631745798e-01,2.090440735581682308e+00,8.618296159607755413e+00,1.991722365280353202e+01,8.290506839492679525e-01,3.175175996072803208e-01
-1.828945872903717573e+00,-2.013361469871206566e+00,-7.008448482460766238e-01,3.941702519656705705e-01,1.018404209113189651e+01,9.510788732158749426e+00,3.367786045901581815e-01,-1.171204721703795748e+00
-4.923518660669644831e+00,-5.420735819864034966e+00,-3.263953996306788952e+00,1.343923237814381721e-02,6.004785073811758522e+00,1.030688324083572383e+01,-1.291487949156464810e+00,-3.990777091261808796e+00
2.711239552050387136e+00,1.930460295570522788e+00,2.474707735455460522e+00,1.876752931667414082e+00,9.559639172987477451e+00,4.389125816638880906e+00,3.638490535533693393e+00,2.793980527055906826e+00
3.206102833075330949e+00,2.960514707687309954e+00,3.949286838246346409e+00,3.035958391720494642e+00,5.830190355938653646e+00,-1.814779402822816579e+00,3.622628135407186534e+00,3.490282774957463641e+00
4.201617010441738742e+00,3.605766316473301814e+00,3.352150096071628393e+00,2.521344857184026012e+00,-3.156754040175201226e+00,-9.030994803870946441e+00,5.255083923111349087e+00,4.808556251080874588e+00
6.483136362903110239e-01,2.370479099414448676e-01,-1.218262528007644008e+00,-2.429841809470438818e+00,-1.321692815625370088e+01,-1.945021812928882099e+01,1.264432008422275544e+00,9.071693002164757935e-01
4.076104974594873198e+00,3.021045725465016485e+00,1.895712442668740616e+00,2.436456638911145056e+00,-1.055624135677739872e+01,-1.602196364106475102e+01,3.804196095025102586e+00,3.491802425167856772e+00
2.250048933945686613e+00,1.647158167191834943e+00,7.781404889423026994e-01,-1.863308204615566011e+00,-3.481895964071201721e+00,-4.655782492915786719e+00,1.877774411779891572e+00,2.417053073365940108e+00
5.115898142130053117e-01,3.578264136325548517e-01,-1.526979243522639251e-01,-1.750100702352104687e+00,4.071329553755663966e+00,4.671296126371741408e+00,-3.655265928521336249e-01,9.787827038977243710e-01
-6.048798920118587663e-01,-1.434541982964829376e+00,-1.420465464192545157e+00,-1.856450199068014228e+00,4.875502408884150540e+00,8.327976981406946422e+00,-1.616625766396827757e+00,-8.484428605369793708e-01
-5.328661642853498748e+00,-5.859732693061685538e+00,-5.257605515574773847e+00,-5.382564210676634708e+00,3.322196664813352740e+00,7.306050092249535055e+00,-6.852690439513361653e+00,-6.597125915269335117e+00
-4.668531751331230772e+00,-3.993844341554258826e+00,-2.569494437219506988e+00,-7.847573325364542995e-01,6.577910582539431061e+00,1.187653872641194042e+01,-6.579140222027148432e+00,-5.881678768045551564e+00
4.376922576662130027e-01,2.074155971303874857e+00,1.873383353866620915e+00,2.976961673200441361e+00,7.819333600337706969e+00,1.698884011834363150e+01,3.167150215633656174e-01,6.525917399729808110e-01
-6.000162652286519460e+00,-4.520470302439220767e+00,-5.117557185394442598e+00,-5.662652748638283384e+00,-2.739797834780197228e+00,2.517541075569113218e+00,-1.947701013761677924e+00,-4.629697159602225831e+00
-4.478599472168216522e+00,-5.622605894592707543e+00,-6.414977430274891645e+00,-5.436349838071409479e+00,-1.007128181342270068e+01,-1.207615156711928606e+01,-9.390279566786086107e-01,-3.015615544937189085e+00
-7.416981306700698440e-02,2.362453431605131549e-01,2.580708282638299877e-01,-6.612724381319008415e-01,-9.705147798507182344e+00,-1.292246281753618575e+01,-1.303226637143191091e-01,-3.251752529055331742e-01
4.708114601369312702e+00,5.585425204538021049e+00,5.903685613224718409e+00,4.475673770474536184e+00,-3.333214526956355783e+00,-7.261090557352117614e+00,2.372330876562140034e+00,3.634785109327961283e+00
2.125460480651477635e+00,5.327491223579754021e+00,7.431864925428631530e+00,3.770783747928305729e+00,-4.770300984767059660e-01,-6.565219146463530109e-01,-1.291715979264579595e+00,1.097577662814988253e+00
9.717093223470227858e-01,1.849100215856245288e+00,1.533285193691979131e+00,3.089128707378915983e+00,2.095745494467792014e+00,6.417778330627449179e+00,-1.005247581363993836e+00,3.877226111648981455e-01
-1.914723563597784395e+00,-4.094052792740670910e+00,-6.493159305906113232e+00,-6.408053021505102365e-01,6.810784208122952599e+00,1.366935178634915360e+01,7.888936862851825271e-02,-9.543571425129242503e-01
2.070615762059906828e+00,-2.717312768653501465e-03,4.916323450184204580e-01,3.297705571077803821e+00,1.235989741409749776e+01,9.127525037196333457e+00,2.528583033110000766e+00,2.010163106821790002e+00
2.412090568152106762e+00,2.406168622948450686e+00,3.701930642217692302e+00,5.046148238817185216e+00,1.232399119475650373e+01,9.856869278812368407e+00,3.217570713925971049e+00,2.592517612195204713e+00
3.193260287529235519e+00,3.801332321689858240e+00,3.905927952776945489e+00,3.441042963200774185e+00,5.461633319775661022e+00,8.779234018396152806e+00,4.365052099039766098e+00,3.416020309440038982e+00
1.762134254706329894e+00,1.988719288562646570e+00,1.980762596623693694e+00,6.551505580919223526e-01,-1.324510889796854940e+00,1.627885515228978619e+01,2.490808038248148115e+00,1.805812112445467132e+00
4.348676861004322269e+00,2.461775963929706990e+00,1.604422955957053087e+00,5.777029833922355806e-01,-1.015984888662544350e+01,-1.619682182695895634e+01,5.709410983559802588e+00,4.599463805727967980e+00
6.258189847785846638e+00,6.471108368031008418e+00,5.449732640430125841e+00,-7.543940510954498802e-01,-2.561367731459371910e+01,-6.275817122061431519e+01,4.317303200150989007e+00,5.823193501181759046e+00
-2.082533631484418279e+00,-1.205442173459660538e+00,-1.930193919078564413e+00,-7.870532882183908896e+00,-2.704231633721150274e+01,-6.420626993993388965e+01,-3.479886872037831758e+00,-1.663464555070778061e+00
-7.507233815103127483e+00,-7.682077691721961976e+00,-7.428704816689817747e+00,-4.191230840486372955e+00,-7.284607208121478550e-01,-5.121691316017461304e+00,-7.374058762875183248e+00,-7.145427133820418497e+00
-6.676037231499564406e+00,-6.569262712060764287e+00,-5.466725895814372294e+00,-1.840226800628327997e+00,8.710326628061299203e+00,3.302744513145131577e+01,-6.570790166321235581e+00,-6.582994707570666293e+00
-2.333603587997678197e+00,-2.620984777238105412e+00,-8.158789544485314238e-01,1.636828708501731455e+00,1.754311385879379159e+01,3.538967968310025469e+01,-8.854371385122385973e-01,-2.023210664606081899e+00
-4.156411530887885952e+00,-4.844079326841640665e+00,-3.356850333441850687e+00,-1.281481697125586461e+00,1.393492420571570278e+01,2.564115139842461488e+01,-3.088735687818931819e+00,-3.934232933552242351e+00
3.086346802554685631e+00,2.646519561664624653e+00,2.842056220891774565e+00,3.717366014762002457e+00,1.332780750601543218e+01,2.280766548965080176e+01,1.917471397776776776e+00,2.370991795639865174e+00
5.046090052234392331e+00,5.287034474531917994e+00,3.621822792186415008e+00,5.680497856855201810e+00,1.034810194215759083e+01,1.650443455333458331e+01,3.721703315441209803e+00,4.364707512627383323e+00
2.195071760749282674e+00,1.847880688072164101e+00,6.257697532176724753e-01,1.874165743313128685e+00,3.100208577895752882e+00,5.040532302018210231e+00,1.385512268616876597e+00,2.090078470402565891e+00
-1.158866243908660332e+00,-7.258937522348487548e-01,-1.709871312537983190e+00,-2.287899610387172267e+00,-7.678505095541366288e+00,-9.315370258641575418e+00,-1.860114046782349151e+00,-1.741301175602481432e+00
-1.243002992348044122e+00,-1.266404591199168150e+00,-1.795550212171647786e+00,-3.507446531945079826e+00,-1.328796902064310714e+01,-1.692391689608095362e+01,-2.199811935909999239e+00,-1.123815122498118324e+00
-1.816609604626767460e+00,-2.249107377327745905e+00,-3.139663002434736505e+00,-7.964573928510903400e+00,-1.249476718442625511e+01,-1.578402686774253638e+01,-1.633770856889208645e+00,-1.117757756555863624e+00
-1.892561637211352288e+00,-2.689595161875671714e+00,-2.317592114149671811e+00,-4.598403630972349276e+00,-1.018063023166399361e+01,-1.114157318212773085e+01,-1.398905120698153759e+00,-2.243400256404421977e+00
-9.443431084243527618e-01,-1.294270618430218622e+00,-1.073413293962548032e+00,-1.747997722738073634e+00,-2.097676703759317363e+00,-1.456654493381577709e+00,9.820666311097596690e-01,-5.782204612088148732e-01
-1.872067505692230904e+00,-4.842098958789257113e-01,-6.070488600426564574e-01,-1.850866591499510605e+00,3.438171621827237345e+00,1.627966199093400235e+00,-1.626705500376641744e+00,-1.614910166889934162e+00
2.145721358983410099e+00,4.136180767426899330e+00,5.275767560577881099e+00,6.692892909758238140e+00,9.245624546731754378e+00,8.081237301726842404e+00,2.409109490400970000e+00,2.110814146514721212e+00
2.700231598495019369e+00,3.373316564074715362e+00,4.869351761096898379e+00,6.610276320548890361e+00,1.007385641425065081e+01,1.154411563108901362e+01,3.052621582239457343e+00,2.452090341363348358e+00
1.985927334309419923e+00,2.707291417207976725e+00,3.376453633099734120e+00,3.826384992655867734e+00,6.948429562243296331e+00,1.165577009306041489e+01,2.245178725613556914e+00,1.442084002006887911e+00
-2.921180638188274781e+00,-2.504099547974665718e+00,-2.160554977487418427e+00,-7.343576631046389025e-01,-9.921420527274840140e-01,-6.833063596987845045e-01,-2.864009310404497910e+00,-3.192530178648126160e+00
-3.591149044624908360e-01,1.745254141071055365e-01,-3.821327753730185961e-02,-3.491864869936787130e-01,-8.897447908540488726e+00,-1.484485542309798412e+01,-9.690716724414523142e-01,3.249902022741720242e-01
4.636427754624968145e+00,5.246290259276031875e+00,3.523590976593224955e+00,1.592471912525539768e+00,-1.159331055978238822e+01,-2.279688319915962325e+01,4.331829729735535039e+00,5.547853068669637011e+00
5.065207657123879770e+00,3.879684292277754576e+00,2.520876297892270745e+00,2.057986674838353736e+00,-6.713507954770983943e+00,-1.266529855047716779e+01,5.813627280542650766e+00,5.343953581057996338e+00
2.033080241891660034e+00,9.554762737400821493e-01,6.774921052712423730e-01,2.273953832462095370e+00,3.964205526932426338e+00,1.392475275368743937e+00,3.113458678582042616e+00,2.593895435450680687e+00
-1.711524148077417928e+00,-2.301391597862416205e+00,-2.142618502669669578e+00,-1.298419892512856055e+00,3.669101668560403873e+00,4.382691795010766000e+00,-1.289555889714141035e+00,-1.241804561749001223e+00
-5.498663763460165388e-01,-1.270433353979802060e+00,2.305483284077339823e-01,1.662254582405481518e+00,8.757401281418845329e+00,1.028482277140285817e+01,-2.024541381484597391e+00,-1.341318470275913999e+00
-4.877143743412986510e+00,-6.515739696218238564e+00,-4.471381278252515301e+00,-1.406767906326851669e+00,4.902883647875327711e+00,7.299398182819016867e+00,-4.597557195528835017e+00,-5.165035657930388879e+00
-4.265555289858615318e+00,-5.374713778434601963e+00,-4.888089224783696451e+00,-4.857403647301999250e+00,9.224144800974234393e-01,5.209116088716248427e+00,-3.320101526122852587e+00,-4.228097737290490876e+00
5.190114347783003623e-02,-8.777439247933047639e-01,-1.374597294994454266e+00,-1.828427888341884522e+00,5.314372902035564117e+00,1.007937348661486254e+01,-3.591846994708047802e-02,-3.714970786494378174e-01
-4.929450660693309061e+00,-5.272876738466930391e+00,-4.293002646438699443e+00,-4.510317026704112386e+00,-4.561544089336351249e-01,4.379926181876412805e+00,-5.776222089482949684e+00,-5.358581699040437130e+00
-1.708900008834910444e-01,-7.961598014041726401e-03,-4.357835828610889806e-01,-2.012629030782786543e+00,-3.720678417399326143e+00,4.441880870164576223e-01,-8.519650240144756026e-01,-4.336474120131397214e-01
1.314900834550872144e+00,2.121363548764337192e+00,8.931818003339597745e-01,-1.819994856755158708e+00,-8.365343442566043564e+00,-5.365140693629357749e+00,1.426072062469902146e+00,1.337638336067174638e+00
3.126099032345843742e+00,3.655509222702617134e+00,1.728731453114931593e+00,-7.723673291419101972e-01,-8.709350974860704753e+00,-7.132074837396994660e+00,2.064371177736974428e+00,2.575190255406496931e+00
2.697294509198824741e+00,2.982578234523611815e+00,1.516504953485795948e+00,1.334773212657733410e+00,-3.111047249494050426e+00,3.303124731611887466e+00,1.543417912783872747e+00,2.317038838315289340e+00
2.122431674670965496e+00,2.983995820984704395e+00,2.470454426301136763e+00,4.102847918077742406e+00,6.771764071702635945e+00,1.319291513497248403e+01,8.898482812805904585e-01,1.872820129874319894e+00
1.376848782480310618e+00,2.471459013697211660e+00,2.678058991409792533e+00,4.438146158041429423e+00,1.031726313586544208e+01,3.876598225735958358e+00,-9.675690443266649066e-01,7.446783972147739128e-01
-4.094363094162465799e+00,-2.999603449303640090e+00,-2.642695771131060134e+00,-1.197065350387721328e+00,3.801888390815371110e+00,4.589693838226322598e+00,-3.547352924039383737e+00,-3.758715610635196658e+00
2.842098954947671174e+00,3.824204102459245469e+00,3.007309548412305134e+00,1.485329129452635843e+00,6.631692163022515629e-01,-1.434815845304101423e+01,3.308714350171808594e+00,3.246235593617603499e+00
6.335177737061274961e+00,8.209640869909030414e+00,8.289009997370467175e+00,6.450632938987973297e+00,-3.583041966124185684e+00,-3.270480012819261617e+01,5.449917359030452602e+00,5.847579975534959118e+00
7.646557596631700093e-01,2.170171694544169583e+00,4.574223968977316979e+00,2.450762248810063326e+00,-1.046610378451599210e+01,-2.277298767673978475e+01,-7.846198723645825268e-02,-1.297244430860722275e-02
-2.395235955466898048e+00,-2.698740410072058893e+00,-7.254481961000136536e-01,-1.840902407576653133e+00,-6.346946710171378569e+00,-3.173681178754431897e+00,-1.541357793848566526e+00,-2.150459894822429163e+00
-6.631215590221644085e+00,-8.247878726386225878e+00,-7.909619627343138504e+00,-6.577582146731436374e+00,-1.655986757122279496e+00,1.391048612329536027e+01,3.017348412556604131e-01,-4.058268000931620101e+00
-2.017368395421867078e+00,-4.993890640703971151e+00,-5.478632609415510224e+00,-2.862851992277497093e+00,3.995998337833960967e+00,1.872279550223405664e+01,2.975654470022006226e+00,-3.115470684640175847e-02
6.331424131849594517e-01,-1.182256657461735472e+00,-1.240227931082912072e+00,1.279854607267189692e+00,4.706555925791020556e+00,8.103400531785165839e+00,2.301686109655314283e-01,2.635881528764103532e-01
7.090632540804548967e-01,4.851196958406847060e-01,-2.585133630843299279e-01,1.702313745157948421e-01,6.951440303055496095e-01,3.860328595834026544e+00,-1.177780273920008280e+00,4.584178027184955262e-01
-2.486053913550033911e+00,-2.296918200191214510e+00,-2.533408793775815404e+00,-1.512051901627091244e+00,2.091095537659912296e+00,5.009011762134783829e+00,-2.525043466760524602e+00,-2.610168798171601967e+00
-9.384512438075856000e-01,-9.061362158022974178e-01,-7.170914580042553332e-01,5.059047243222858370e-01,6.050962090672997284e+00,7.109681686658256616e+00,-1.364988511294131346e+00,-6.541696507769614310e-01
6.833724595207324448e-01,1.323065014879349910e+00,1.189416807094850093e+00,1.440249057085764672e+00,6.125285267231002528e+00,8.301560277077111749e+00,4.424517253654833837e-01,1.463926709173794860e+00
2.036000446352772997e+00,2.190314295535182865e+00,2.251330230053502746e+00,2.262087455673799319e+00,4.944110194434778727e+00,8.291485880000928788e+00,1.577448720655698855e+00,1.931185752758495688e+00
-1.525833917066068635e+00,-1.631623817286735445e+00,-1.566854507469005453e+00,-1.778874686025208707e+00,-3.527577204921534815e-01,2.713778944657102343e+00,-2.386711466165877926e+00,-2.438609875987964415e+00
2.312964471133141853e+00,2.066808353496633721e+00,1.338095354705277851e+00,1.292510623327063624e-01,-2.664467204192122907e+00,-1.480596372645622161e+00,1.651884701217960716e+00,1.638334853257918944e+00
3.721561423502310895e-01,-6.832924729259075569e-01,-1.826479366721472264e+00,-3.642715571296580634e+00,-9.262562708464558980e+00,-1.566965863568428752e+01,-5.068696231317484369e-01,1.545637230754087765e-01
-5.562765901086164089e-01,-2.034862591702955026e+00,-1.154609812050003237e+00,-1.428207938875577288e+00,-9.731876983359502020e+00,-1.741604457632793412e+01,-1.880357226907076296e+00,-1.311396132754218735e+00
-8.400116483899555675e-01,-9.404252527311611765e-01,-1.181975884698233781e+00,-1.201214263461030995e+00,-3.495627881420801053e+00,-5.049105584771325539e+00,-5.687096384370371460e-01,-5.895712712167009428e-01
6.663922884528281632e-01,1.897718064465146348e+00,9.823130295865962758e-01,1.504163970280715024e+00,2.730810013906342704e+00,-4.312986121834462949e+00,-1.776275732437139876e+00,1.504330066938804888e-01
1.020689971247101369e+00,3.427364839644836625e+00,4.112200157975691717e+00,2.977102328855077751e+00,3.043574894454017077e+00,-8.953333859291294772e-01,-1.860161725688211254e+00,-1.767082876075087572e-01
-5.757599748477819634e-01,2.159760260958594635e+00,5.545306891019770923e+00,-7.796261492214076050e-01,5.312587799726209425e-03,5.800003861849700293e+00,-9.617472455816867827e-01,-1.053797317971244318e+00
1.703014869145077714e+00,1.607431314125074451e+00,9.733016305476014374e-01,5.087000928792418941e-01,-9.721203250088897851e-01,1.781879553001709748e+00,9.327927877698469761e-01,1.630770294051033575e+00
6.489184949743137309e+00,5.915872669041255527e+00,5.292721052755410938e+00,4.892161980935085808e+00,1.966082647944964457e+00,-1.130457252852042682e+00,4.696331339518519776e+00,5.771654003845661407e+00
-1.699596459332214593e+00,-2.151149020216714725e+00,-1.479898622529905339e+00,-1.662444980450840326e+00,3.455730665839140237e+00,8.940180146268503769e-01,1.073801240991184125e+00,-1.830801435516095754e+00
-2.942970795333845757e+00,-3.509027548279747499e+00,-6.188122241416861513e+00,-4.987657941045640975e+00,-2.101893073289533564e+00,-4.400509678192452423e-01,4.909565753445817027e-01,-1.848350052491765538e+00
6.427094001894334552e-01,5.504532288756004421e-01,9.297849360943177821e-02,2.176715251201868373e+00,-2.075630670382010656e+00,-1.318788074072043681e+00,2.260624144360453336e+00,1.213359235664211555e+00
-2.160449175090213281e+00,-1.803781342701112900e+00,-2.302868083119078868e+00,1.399501233774954390e+00,-4.515726735073567255e+00,-6.703046156444824710e+00,-8.971471457327688803e-01,-1.376420461535644568e+00
-1.113697518911989093e+00,-2.159941899754326045e+00,-2.342276992047208850e+00,-6.477380346473458061e-01,-7.321761161841853216e-01,3.041051154349294183e+00,2.314901730761217635e+00,3.770500548059461665e-01
-3.546513865758494699e+00,-4.703594962150384085e+00,-4.243313158175137545e+00,-2.983618800262970439e+00,3.123902049911206014e+00,8.422854778320289171e+00,-1.287785789931758185e+00,-2.814753332762008675e+00
-6.228408706770520720e-01,-3.083174933865273637e-01,2.188987007919087624e-01,5.129456492715434024e-01,3.889405512728942860e+00,2.458257309283207626e+00,-1.871230259287729680e+00,-5.251419257384102313e-01
-3.675994977269510411e+00,-3.568095340357046119e+00,-3.364305853293184878e+00,-2.111534602313943410e+00,1.299742475430437416e+00,1.361616681053227307e+00,-3.780533169831061358e+00,-3.670125268419238473e+00
1.583350462887687549e+00,1.897252836055889347e+00,3.376093744009859954e+00,8.406248679269650026e+00,9.792004945043011332e+00,1.072852655186480675e+01,1.487990197305050000e+00,1.494347203772455224e+00
4.481981099986123596e+00,4.578164362548950095e+00,5.003975387612854320e+00,5.421826131701175555e+00,1.023242848334141009e+01,1.334855011693599103e+01,2.916097300155718663e+00,4.139502637396690332e+00
3.050480308989744316e+00,3.673298912048899467e+00,2.277437286464889965e+00,-1.660828849270734153e+00,-1.218289119373351603e+00,2.863584944977105806e+00,-5.259327929363449838e-01,2.593473514562136373e+00
-1.094080268205699369e+00,-6.662577239614577707e-01,-5.589887914647588829e-01,-7.054792977748706839e+00,-1.048610202025606775e+01,-5.703299828944340177e+00,-2.517711917708350455e+00,-2.126224508610760289e+00
-1.783357316625413969e+00,-2.973999460675061268e+00,-3.309697506455597349e+00,-8.538157955678979505e+00,-8.774298951937192115e+00,-4.018995144801148278e+00,-1.148807480301625050e+00,-1.659209677185725207e+00
2.812331862371022062e+00,1.484226435005782996e+00,9.580655836146783066e-01,1.312318374178881975e+00,-2.585265134966463041e+00,1.728808662009111430e-01,3.171770676062333649e+00,2.947978747358471541e+00
2.134278690741433504e+00,2.224512852095689830e+00,3.441809582981946392e+00,5.052916457419652119e+00,3.462928104244060279e+00,3.357421282576738442e+00,2.105324440931557017e+00,1.289754516277505259e+00
3.144993001257672116e-01,8.215199374826630541e-01,2.631811937516282729e+00,5.616755026349860458e+00,8.424215119043552136e+00,8.941050933850753779e+00,1.034068874140727345e+00,-1.924036841695662137e-01
-2.423855997407815988e+00,-3.189908266035260009e+00,-3.912943158280427713e+00,-2.070157004479387108e+00,-1.702912238514905585e+00,-1.304509689936870842e+01,-2.734853953467097476e+00,-2.838450728892266017e+00
-2.176648701021537402e+00,-2.184447912582417661e+00,-2.487155608858802935e+00,-2.832751510560204355e+00,-1.122354816490645391e+01,-4.772022021098176481e+01,-2.577977176100417100e+00,-1.833289975545378425e+00
-1.498196027749872927e+00,-3.121695324110346226e-01,-1.189213111153599733e-01,-5.150193061242304138e-01,-1.098661651148146845e+01,-3.573603811279096476e+01,-1.875777332145295517e+00,-2.316180800638507620e-01
2.473817290304865413e+00,3.193648231654217184e+00,3.664844649537190246e+00,4.036480074278506969e+00,2.793281786883104800e+00,3.415013193700282557e+00,2.815707776711868782e-01,2.153202899952452842e+00
-1.956345137840024728e+00,-1.475509419017185353e+00,-1.873919597850679741e+00,-4.612484498629507712e-01,1.027829285066059484e+01,3.218806958736887225e+01,-2.751758554406971147e+00,-1.442784173047678919e+00
-2.196679839549115609e+00,-2.248980885116181661e+00,-2.968272937571514447e+00,-3.251026405999843938e+00,-1.584994169750123749e+00,1.339070559763479906e+01,-2.619494356455994044e+00,-2.133069519069007214e+00
3.096353277022347861e-01,-1.044989064421165237e+00,-2.404135021608782008e+00,-3.114381267030066347e+00,1.222633563679299318e+00,1.471383778354629435e+01,3.496702533588401884e+00,1.280317026406779801e+00
2.475346906397652536e+00,2.002585752234019800e+00,2.020010908357194435e+00,9.813520511394893120e-01,-1.632009884752183559e-02,8.968025692455713127e+00,4.703353540572962288e+00,3.463383587223343607e+00
2.002891806860836343e+00,2.785002474507854764e+00,2.666830879051738989e+00,2.402898744606027925e+00,-6.510784597551020347e-01,1.206965231386153192e+01,4.308605288795334332e+00,1.777244813188535222e+00
1.562801099365967339e+00,2.046700567075973254e+00,7.208362219480727306e-01,-1.883089363141686290e+00,5.043452690950301687e+00,1.095297615354803078e+01,3.002439212929181256e+00,1.203756857360964272e+00
3.024680612688746884e+00,3.980899426074124392e+00,3.995163038716723403e+00,3.322229954897969240e+00,1.620519673689835738e+00,-7.417413474242184890e+00,-1.603617888112486067e+00,7.472851207322147582e-01
2.090398949798796480e+00,3.052909487519488430e+00,3.148516966774301817e+00,3.243989941218560435e+00,-1.682052082534160942e+00,-1.159387998146781484e+01,-1.360893014599575679e+00,3.542957769893663178e-01
-3.529501491423459036e+00,-2.744401151512166681e+00,-2.602730113918933164e+00,-6.451168880209530165e-01,-1.196391192804910242e+00,-3.825966283900702258e+00,-2.706945590095375387e+00,-3.615625840499046451e+00
-7.540512746308859482e-01,-2.349132868228428261e+00,-1.051252328028818184e+00,7.002966543782696007e-01,8.496001890764929954e+00,4.567868681866229075e+00,2.207444445106386599e+00,8.224641427706258501e-01
-3.645490444506894745e-01,-1.426275309704028160e+00,-3.269641784552931307e-01,7.998856330943027171e-01,4.166557280128424523e+00,2.507575846482604121e+00,7.186477424690934646e-01,5.771600612349252479e-01
-9.075892947136210420e-01,-7.140895918238328033e-01,-4.681293405972041799e-01,-9.809294016253511383e-01,-3.976912921631989839e+00,-4.437854985773382666e+00,-2.993295619584184664e+00,-1.473447439001276393e+00
-2.050985900539192830e+00,-2.650352236526653193e+00,-2.713736282793960619e+00,-2.565205235650328319e+00,-8.359524590060726013e+00,-8.668572097824492673e+00,-2.778694934620991486e+00,-2.762419495764520949e+00
-3.221582722369749074e+00,-4.515802345820355335e+00,-4.482423243580578642e+00,-3.129491561501700048e+00,-8.903169995478299015e+00,-1.033742186220327142e+01,-2.918974488435181147e+00,-3.523753069008288996e+00
-2.429296036475648179e+00,-1.808538140887320900e+00,-7.889667011754393222e-01,-5.408816700615782125e+00,-2.467653157383028706e+00,-5.153288027958069506e-02,-4.210326663542445225e-01,-1.251480588409175310e+00
-4.774922871235383504e+00,-3.578360914491658384e+00,-2.303319288778086005e+00,-2.813014675140898646e+00,2.087252534848514252e+00,1.975594835536835348e+00,-2.102290245767407306e+00,-3.230769740582418947e+00
2.519629590171645894e+00,1.361258541524303922e+00,2.534432789292671018e-01,4.688476497221308215e+00,7.020658976710670629e+00,6.425781239707525572e+00,1.816023518681911142e+00,2.345117360346465230e+00
5.192462555782800138e+00,4.979702092133690527e+00,3.234754278183599840e+00,4.829178478672195851e+00,5.730485323331544478e+00,7.624263614551185064e+00,2.903488490469328553e+00,4.245168162589443739e+00
3.821846880197775409e+00,4.176093268465955077e+00,4.441887464620499770e+00,4.770483694379946904e+00,7.855832530788939394e+00,7.513931229844994064e+00,2.806619574701312736e+00,4.079513481822531595e+00
3.063374505275727522e+00,2.532913033920162427e+00,1.930430283531693991e+00,2.177396231073861710e+00,4.868536843632512046e+00,1.450934198572332967e+00,3.911694963487568621e+00,3.602371998326773905e+00
-3.602714916169875714e+00,-4.094805944061421066e+00,-5.975872249575620465e+00,-6.600682779926264843e+00,-6.260702121909000439e+00,-5.987219745286790129e+00,-2.192775610020611943e+00,-3.188344616186052249e+00
-3.221206897059853969e+00,-3.318163067395792254e+00,-3.548291742045125652e+00,-2.492366947355996842e+00,-7.103023781296206707e+00,-7.743126661538047628e+00,-3.524508440141267407e+00,-3.720058635505666178e+00
-9.281888068262841296e-01,1.463616530776857605e+00,1.738420242308894359e+00,-6.932249980425737590e-01,-1.030918820387385892e+01,-4.631181937678456428e+00,-2.515808442812874635e+00,-1.125386207164324359e+00
5.315962083006345873e-01,1.513789144569535949e+00,1.142018600187506117e+00,-4.525967703808922993e-01,-5.857679915712088459e+00,-1.559088199658436036e+00,-1.326507128109156719e+00,-4.011858538412915731e-01
2.065130311240498617e+00,1.604978957124368222e+00,1.991666956376863418e+00,1.903687543809246874e+00,2.312090864345064389e-01,-1.104372363209088448e+01,5.597419294862464589e-01,1.311921815062476515e+00
3.142250200129770299e+00,3.198186332626513195e+00,5.215504380039718946e+00,3.483403247408092263e+00,5.281552901770181663e+00,-4.183191979603047450e+00,3.831173930060029154e+00,3.502923207036235276e+00
-8.623752551574068725e-01,2.553265079564084328e-01,4.811137300813683737e+00,-1.761536581400572121e+00,1.182869493746638856e+00,3.812542911455075512e+00,7.052873612154231253e-02,-5.942230717204031176e-01
-1.886482668533862928e+00,-2.742321950550144827e+00,-3.897078242054086594e+00,-7.669300763674244514e+00,-9.718132204111402217e+00,-5.466002595538888897e+00,-1.983581986122218366e+00,-1.639950520746284779e+00
2.997944879649837802e+00,1.865112502542170869e+00,-6.513534127831477338e-01,1.756475050721041153e+00,-1.114895202688259701e-01,1.549178938772419301e+00,3.166142771778945431e+00,3.471000085221519260e+00
1.953459141402399402e+00,2.153516402881206826e+00,3.162975448049955229e+00,1.101094175046883805e+01,1.776187174025920967e+01,1.796042847590540958e+01,3.626961806767756258e+00,3.328938044522411488e+00
-2.194716221310453186e+00,-2.708776432212254726e+00,-3.516988251021243794e+00,6.622449433708808009e-01,7.054415337667269803e+00,9.970520864829744312e+00,-1.375229727559052151e+00,-1.289084320463318001e+00
2.190548393737620891e+00,1.723378427416123237e+00,7.292815618820522872e-01,3.661851591396771965e-01,2.119275113608479977e+00,6.079075051263543195e+00,1.837184191221710172e+00,1.456834786897354794e+00
1.809330719814038035e+00,7.818674022951731528e-01,-3.282457129638740589e-01,-6.847549321735746375e-02,-3.784248314819738113e-01,-4.490651371240446110e-01,1.316338781801276170e+00,2.280412882238935790e-01
-3.324354893761588770e+00,-3.950112005051025221e+00,-3.716781417691720435e+00,3.042972562488111543e-01,-1.132627601723599220e+00,-3.450549266903074397e+00,-3.012998156966053553e+00,-4.642291810946598929e+00
-2.895009711710528233e+00,-2.203271450755738936e+00,-2.093770307017522647e+00,4.116635654657913590e-01,-1.337018423125537758e-01,6.042649301279030549e-01,-2.032043451967114223e+00,-3.351672721063484239e+00
1.084818817095139387e+00,1.414426615747021554e+00,1.570613903709817460e+00,-3.375376474643405622e+00,-2.355896913160583583e+00,3.894876429097388293e+00,9.056334503964333926e-01,1.127314869760443816e+00
-3.830111355145664032e+00,-2.363546697434233845e+00,-2.032568536715976037e+00,-7.263438455794236859e+00,-5.320494103495782667e+00,8.842566736450736542e-01,-3.501530209464095211e+00,-3.306493977593210509e+00
-1.048914219269104109e+00,-1.157524421601987541e+00,-1.928573759339941240e+00,-3.571245940489456761e+00,-6.494022972178901121e-01,3.149499701159156562e+00,-7.266343975360758378e-01,-1.162310156450143683e+00
1.642320428148309031e+00,1.932274216771164177e+00,2.075917730236080061e+00,3.661232804841753286e+00,1.575316885832147573e+00,6.121079875899092748e+00,1.135025073726473988e+00,1.216014492102222011e+00
3.038795235705805897e+00,3.273053303145817328e+00,4.417689039311179400e+00,6.877782178489036724e+00,5.030609215265638312e+00,6.903686774066500220e+00,2.169707597483079287e+00,2.964636365697155718e+00
-3.548749318023515009e+00,-3.072280534846768330e+00,-9.909601806879921870e-01,4.104148273449781392e-02,1.571612202652790113e+00,8.564047220747756928e-01,-3.013667225258781723e+00,-2.580763270984996360e+00
-1.906650623157669866e+00,-2.716932111912970793e+00,-3.274114162926034854e+00,-4.567836570660871232e+00,-3.703852700300237721e+00,-1.180556740819031347e+01,-1.524499198952953938e+00,-8.445993600271768376e-01
5.992492215747105888e+00,5.499232754194073536e+00,4.321129184392712652e+00,2.042133029822113421e+00,-9.102811961190436563e+00,-4.566082554351660860e+01,4.343470789615093253e+00,5.691202398253505379e+00
4.621648353512139096e+00,4.919506854778258109e+00,2.841233293621420408e+00,1.812860750849457414e+00,-1.004752499344126804e+01,-3.710560699284849306e+01,2.792798981819878179e+00,4.701865767647876559e+00
-8.146223391576614681e-01,-9.627976644789053573e-01,-2.862992558958450839e+00,-1.920031485245526914e+00,-5.325116542767952765e+00,-3.086705717418201544e+00,-3.115400480636615566e+00,-1.055279226507884527e+00
-3.050215020109029673e+00,-3.249100058535287605e+00,-3.276249137827152769e+00,-2.117454405787492000e+00,6.926899829752796833e+00,3.402783549545852537e+01,-3.087372729006765404e+00,-2.981414007628708784e+00
-1.427163043425795808e+00,-1.616318927455107968e+00,-1.118325907785680640e+00,2.006467065919398385e-02,6.247301231773341179e+00,2.160651609770447834e+01,1.606702251178593333e-01,-5.298641724926714813e-01
-5.618571335949164691e+00,-6.217977594672348118e+00,-5.328041215466607028e+00,-5.297454197524942288e+00,-4.951095971714436494e-01,4.350900214013980971e+00,-3.032258626066631990e+00,-4.887069363451978177e+00
-5.252192605728616126e-01,7.231076361877297742e-02,1.275467145744494601e+00,-2.690432030338747449e-01,3.711824282844284006e+00,6.207370956068794854e+00,5.950486260173757369e-01,-6.923824389031159043e-01
1.027860162721708548e+00,1.503725012036603026e+00,3.477308390616184575e+00,5.889169747612761796e+00,6.379776970578022954e+00,1.007386024163260352e+01,1.663572910089648360e+00,4.126466601910450116e-01
-3.649308491222203799e+00,-3.593474345998960651e+00,-3.258647724109996258e+00,-1.902198862095029419e+00,-1.677503782347514516e+00,6.472933653929775488e+00,-4.108908442532859695e+00,-4.069497761155582261e+00
2.052059134696369469e+00,1.722000136735922116e+00,1.860401450927892553e+00,2.997254369729404067e-01,1.015426562589927251e-01,7.085933571041104884e+00,2.760441872552130693e+00,1.901119996079109420e+00
5.336765959204733178e+00,5.403417451479356259e+00,5.886345362637675827e+00,2.644361651009165648e+00,-1.478778178752193639e+00,-1.192729735442461703e+01,5.273522112643579618e+00,4.696826870357553751e+00
4.921741549226057444e-01,7.895986652990867327e-01,7.521306358761008504e-01,-7.587783798623943810e-01,-6.027512412244255380e+00,-2.178794715611246602e+01,5.829424693679761127e-01,-9.889729055436506933e-01
-8.970960934010010490e-01,-4.002855387049608638e-01,-1.415752730626502309e+00,-3.451857392258019797e-01,-1.320626773257142172e+00,2.003561723945348483e+00,2.375174791767760141e-01,-7.592663416964773315e-01
2.297944394086008479e+00,2.840479685776345242e+00,3.117596246760999890e+00,4.999423138837778779e+00,7.440950455187196333e+00,1.501318090130300220e+01,1.952157430033448771e+00,3.162412496943145968e+00
-1.761440368379703081e-01,-3.921185432991536324e-01,-6.342644886244994673e-01,1.249441749526103429e-01,9.550202030522545460e-01,-2.196252541506539480e+00,-1.653252786419419973e+00,5.850446908265949375e-01
-7.355929747148060027e-01,-2.141166727585970708e+00,-1.707351086707847632e+00,-8.844274649858752113e-01,9.826254271817411734e-01,-3.347918823533835742e+00,-1.505035868980611813e+00,7.668609713866579858e-01
4.492923870109013507e+00,3.492680966692044642e+00,3.725875427090778125e+00,3.083681215353452743e+00,4.684068849098558474e+00,-3.276620223405628529e-01,2.761731049206832544e+00,4.461159858185260951e+00
5.500317124998827190e+00,5.374899913533280227e+00,4.242956891569955147e+00,2.267649691727008587e+00,4.960995543332904489e+00,5.111095172631672234e+00,4.850486518909596256e+00,3.917896743443041618e+00
-1.278275063915840892e+00,-1.166808834732835365e-01,-1.977665932758906120e+00,-1.318297706872929353e+00,2.399897933313530629e+00,5.777603682146441599e+00,7.404023529032244255e-03,-1.851322275306841458e+00
-2.676838989168049743e+00,-2.494963293634026691e+00,-1.639735440397082522e+00,1.197934367251207999e-01,2.050956446552232304e-01,6.392848636545572782e-01,-1.623024086306577463e+00,-2.946160491379845148e+00
-2.966360409691021438e+00,-2.579184414156251215e+00,-1.953507924190122091e+00,-2.885398324661291092e+00,-4.827878589373401752e+00,-4.884166550418628461e+00,-2.439151997877994305e+00,-1.853808841487985859e+00
-3.069609712982235727e+00,-2.912958415393591238e+00,-4.071190863094125589e+00,-5.203820288488468115e+00,-7.032997634037425172e+00,-8.029242626723045007e+00,-2.789836692070160495e+00,-1.693557649088271777e+00
-2.989260726214804542e+00,-3.317153840833742429e+00,-4.332968993829063642e+00,-6.126225900966066007e+00,-7.709842142243226171e+00,-7.437950722159236250e+00,-2.614983788957452759e+00,-1.944545671888044058e+00
-8.521809274824545533e-01,-9.138242699613932096e-01,-1.255217709056251518e+00,-2.408759570977668574e+00,-2.369463394866762940e+00,1.834461457413222085e+00,-2.012659491935573364e-01,5.775375184990494404e-02
-2.385247011937283723e+00,-2.438115854316073694e+00,-1.767471612169330353e+00,-5.573269452206108809e-02,1.054653580938692770e+00,8.380724555322409230e+00,-3.107945872258848663e+00,-3.282691926273888505e+00
1.333651915694240575e+00,6.874953928503590994e-01,1.050159628199821782e+00,5.479172105377040580e+00,1.209674517809109062e+00,8.647897928171612847e+00,4.323460842890014533e-02,-3.740418068046800215e-01
-8.100654763259129698e-01,-8.040465853551010955e-01,-1.520797645898024353e+00,9.875879561056005729e-01,-2.152540614964032706e+00,-3.590166089661793514e+00,-1.300218897918763883e+00,-1.886460840117080373e+00
1.386530392278918944e+00,1.984989933579070609e+00,2.060498753298136254e+00,1.528617579770267687e+00,1.636966567849206466e+00,9.396007752083668230e-01,1.665007183177924066e+00,6.064930058628474896e-01
-3.496649911081476603e+00,-4.539002228120802229e+00,-3.820184525767700734e+00,-3.632150125060175760e+00,1.308796538092095396e+00,9.900784629248398971e+00,-3.701973817583319892e+00,-4.691867929765131784e+00
1.516906945782922955e+00,1.885135735828287196e+00,1.679664815564728020e+00,7.272749167903879153e-01,-1.022351482890635488e+00,1.270524923285349050e+00,-6.024228428625340026e-01,3.555857483341260394e-01
9.084997174294912270e+00,1.151702365367400560e+01,1.174577941007230564e+01,1.069852833383743373e+01,-5.253774887757895584e+00,-5.228851046940815195e+01,4.961177646780143391e+00,8.044738045530476001e+00
6.791825607532019582e+00,8.655855182244279078e+00,1.274887256130487145e+01,9.355158433924955830e+00,-8.805884721757433198e+00,-3.981730780686700655e+01,3.855089207977314469e+00,5.259954860063055904e+00
-1.438130537121718788e+00,-2.637136551376408455e+00,-6.323220271936769166e-01,-6.202932794304041764e+00,4.175227186456212713e+00,8.057662200662502272e+00,3.362246807573062490e+00,7.339692245806430648e-01
-4.552365306839082137e+00,-7.875482186391862705e+00,-1.120728136508889783e+01,-5.394840397302424151e+00,1.542843575130499900e+01,4.414646750058204816e+01,3.079871628047170518e-02,-2.456273471631027050e+00
-3.331119737763423849e+00,-4.122776927391772261e+00,-5.434996855474731881e+00,-2.900844317047780230e+00,6.619880055881383285e+00,2.765641556752876440e+01,-2.132526564042679151e+00,-2.230012809999724066e+00
5.745527068455684727e-01,4.165089196991313969e-01,-2.121536455413197686e-02,6.469013060330977005e-01,3.969646288426520897e+00,1.080516505987640308e+01,1.273722492760449798e+00,1.623614113146732540e+00
1.819221559472174787e+00,2.289794891229349982e+00,1.897819352497958523e+00,8.014489900867376448e-01,3.249103961873573532e+00,7.285205699520526323e+00,2.980754572245278400e+00,3.078001439502871417e+00
1.710854676217128389e+00,1.767607176130279401e+00,2.548743557762181755e+00,9.952271389064029083e-01,3.409572349558108062e+00,5.074606258677155424e+00,1.980270720516696281e+00,2.425690425091515223e+00
-4.403167612716211821e+00,-3.165179794475461161e+00,-1.399800555240237276e+00,-2.498536237747211786e+00,-2.538951620517456931e+00,-1.842470357905792611e+00,-4.022630633610637219e+00,-3.794987358976449787e+00
-3.399438592368114964e+00,-2.609993763991881988e+00,-3.014406450478683830e+00,-6.654355356678498978e+00,-1.067377223101335915e+01,-7.937232568814257760e+00,-2.916458785583509350e+00,-2.931175491161264191e+00
-3.956072543835950306e+00,-4.047601057544116365e+00,-7.088814979619309398e+00,-6.681972128441326930e+00,-6.996173190748356419e+00,-4.600599432636796493e+00,-1.705211641732586214e+00,-3.318274305224348630e+00
-1.916599861366195867e+00,-1.748737137450327994e+00,-2.410304257385814886e+00,-2.601390355124406639e-01,-5.548190729612221261e+00,-1.212650896048411298e+01,-1.527997198603752382e+00,-1.699023662975394311e+00
4.317479764691037225e+00,4.134268286976745976e+00,4.637044274195872617e+00,4.901320425512772694e+00,-2.212384755829339689e+00,-1.713564646384710599e+01,6.067341578193474749e-01,2.685667308539954501e+00
3.760967967184347671e+00,4.210730761826330770e+00,5.035264856180202919e+00,6.447973970674609312e+00,1.143749409036706410e+00,-1.329253396333228210e+01,-1.637410452480347889e-01,1.516740118154608741e+00
-7.187786115683514332e-01,-1.186231993586920108e+00,-6.178013737650855930e-01,3.225284719057520011e+00,5.678690215381115181e+00,9.357699014217075728e+00,-2.232429160162973325e+00,-2.151376795457610847e+00
-7.443079501615856852e-01,-1.503205482922405967e+00,-1.580430235494047597e+00,1.526504300500662659e+00,5.474991550574483945e+00,9.443421193887557408e+00,4.101445907485992137e-01,-1.241509416077105188e+00
1.346722218153254547e+00,6.502497358921983661e-01,6.169354942674836195e-01,-2.445981280632394395e+00,4.579714152047555942e-01,4.087155337818143330e+00,2.063583163096725848e+00,1.491037208949629989e+00
4.340497244615812100e+00,4.815989115085123728e+00,5.485426203390830757e+00,3.798583247283120023e+00,3.481047325377746748e+00,7.633023555426867723e+00,3.700463062970454686e+00,3.814866055314790394e+00
-2.487546927371150129e+00,-1.960486363677473420e+00,-1.749246158523768191e+00,-3.471831407818834592e+00,2.192834247325672337e-01,1.374287013750587860e+01,-7.915789960517729540e-01,-2.677578425056091227e+00
-2.816238886725357826e+00,-2.899067184194574320e+00,-4.578280914913658073e+00,-5.495543757670442453e+00,-4.034489297392715557e+00,-1.936901512493630406e+00,-1.271130659478257652e+00,-1.682056392646672949e+00
2.009115835017694973e+00,1.984569667360112089e+00,3.090140075852343404e+00,3.821497254939797639e+00,4.025634541155634905e-01,-9.144598485485708750e+00,5.757473326330763141e-01,2.609288881766490320e+00
-5.174545109211161620e-01,-2.659302357309158427e-01,1.460240102031704623e+00,2.278655493266346532e+00,-1.784688492014636640e+00,-7.353989270398685107e+00,-2.101911652528593688e+00,-1.418964558843667234e-01
1.660252555188665768e+00,1.649974151160890523e+00,1.370497947141965822e+00,9.698916814929916530e-01,-4.538921852296683213e+00,-6.572510617091920970e+00,-7.356452764682011036e-01,1.110036252671769308e+00
5.798880440108324485e+00,6.049904785324327960e+00,5.301163673383636699e+00,4.541558527835103831e+00,-1.842685673706483396e+00,-8.087670498628108717e+00,3.989419448885117347e+00,5.309063319077853116e+00
1.719736643221085215e+00,2.386625147115068124e+00,1.763985277482043035e+00,1.324012336538490597e+00,-2.436091759066258078e+00,-6.693178303143495711e+00,2.605248340322456890e-01,1.216116283520850994e+00
1.406697172850273736e+00,2.078099414101546749e+00,9.317527069660691552e-01,1.396840174857693739e+00,2.551253143629475417e+00,1.011599254816438176e+01,2.040786663604580387e+00,1.057469139066265829e+00
-4.123919615161594443e+00,-4.807016175912123934e+00,-5.640688152323237503e+00,-6.503969999759159570e+00,-1.783925671509086208e-01,9.428419510281928595e+00,6.514786022085616857e-02,-2.936079456041690072e+00
-3.594107820039799783e+00,-5.609190034281258619e+00,-4.921631129958988993e+00,-3.263309965543997659e+00,4.107721939856099347e+00,4.999081665695373822e+00,-1.097931097389618804e+00,-3.058429382205865465e+00
-5.930021060445937131e+00,-7.258925996263524638e+00,-5.980698629428151669e+00,-4.398335263482000101e+00,1.830973921772500290e+00,1.367235764607501736e+00,-4.587193711103566329e+00,-6.406077226796174529e+00
-8.735698324629814771e-01,-1.560383456210304942e+00,-1.437311410349179752e+00,-1.497165305402456514e+00,1.106243690031305515e+00,2.795841093073911043e+00,-1.156200687993123033e-01,-6.188530876113262913e-01
1.642801606158093009e-01,4.181742019254843790e-01,4.613285944483731527e-01,-6.121590567916923575e-02,5.325164243023294830e-02,2.753410038234870072e+00,4.272194530835662363e-01,1.306779247675978528e+00
-1.496023658083815988e-01,7.644267373677471333e-01,7.714535682831620278e-01,-8.459456897432504618e-02,-7.842251311216617005e-01,2.740045297659027490e+00,-4.894918496529999663e-01,6.458145067223530766e-02
-9.188086465623841459e-01,4.366135399834663033e-01,2.231927714224568593e-01,-8.875629608547743743e-01,-7.165217732812194651e-01,3.172474396118601270e+00,-2.311511728681022060e+00,-1.492459949035475519e+00
2.444409003077016695e+00,3.155058102852358992e+00,2.977729947949650846e+00,3.732023470659887820e+00,4.282443608256611078e+00,6.702283759305482924e+00,9.687078589425233144e-01,2.141255822118782515e+00
4.811768973936867977e-01,2.651412110855271287e+00,2.828331590926271399e+00,3.926661709476939155e+00,6.796573786209612500e+00,1.099065781548366161e+01,1.619148431676012301e+00,4.408595029560119505e-01
-2.598784034017847855e+00,-1.794630853348615496e+00,-9.227827397585810498e-01,7.483080567883138023e-01,-1.096652462794107219e+00,-2.514403879722877377e+01,-9.872542144954958854e-01,-2.058249832074328545e+00
1.166215762037906778e+00,3.387257737260092050e-01,-4.525339299473563059e-01,-1.168043306070480014e+00,-9.870874482636050828e+00,-4.345277884843046223e+01,9.817126859745883838e-01,1.292156275109963559e+00
5.362078583962152756e+00,4.690092461000790358e+00,4.337218359729463124e+00,2.726555706311643679e+00,-5.742593406143599033e+00,-1.400723838257338194e+01,4.721901694949918848e+00,5.672466330296916937e+00
-2.543574929978838384e+00,-3.691335966507596211e+00,-3.160124456693564454e+00,-2.891834751353323352e+00,3.110948826735093320e+00,2.702374968412064504e+01,-6.768523953739546961e-01,-2.012838134224741005e+00
-1.644767793976393166e+00,-2.725759870725165790e+00,-4.300920601037851121e+00,-6.629853961278745267e+00,1.737268247647469455e+00,2.781846068963620411e+01,-9.110846966399179792e-01,-1.147343977277404115e+00
-4.593314996662184457e-01,-1.626106718789578132e+00,-3.503645603864322666e+00,-4.797488915064798576e+00,-8.109067875765234135e+00,-4.197450335887362272e+00,-2.105392769170641110e+00,-5.801797241905742863e-01
4.083024164050168103e+00,3.492918682568237454e+00,3.030274647164476587e+00,2.533170683940952017e+00,-7.661842619529166676e-01,-8.590255686958768067e+00,2.122648817469406257e+00,2.986775181038351157e+00
6.383595859250331905e+00,7.545877611688227127e+00,9.137555997828094689e+00,1.123525830016851401e+01,8.235636378051456319e+00,9.114373950583183337e-01,2.778595322943205659e+00,3.839985029798572480e+00
3.578852472751655966e+00,3.744746497943429286e+00,5.102548636668862159e+00,6.941504999823397526e+00,6.929881424637480691e+00,8.730111343638732535e+00,2.118483658708710582e+00,2.689970912160012162e+00
-4.325796549003096736e+00,-3.721575404395412789e+00,-2.571635214952315618e+00,-2.307382835984730818e+00,2.719571124517983218e+00,7.080970661202737659e+00,-2.030645506878233419e+00,-3.860726385827383034e+00
-4.278779425887513810e+00,-2.993756942475703564e+00,1.683103918930507259e+00,2.016234485004792631e+00,-2.554037231846724154e+00,-7.918814686727074559e+00,-3.831993216675424030e+00,-4.501419603674590597e+00
-2.006459342031182480e+00,-1.825250805717410829e+00,-8.759728085631020011e-01,-2.748223744361652621e+00,-9.861793011990604541e+00,-2.002805491463567478e+01,-3.061814569568901412e+00,-1.319035880653419035e+00
1.931662208669488567e+00,6.039163236650688660e-01,-1.655918123234111139e+00,-1.496783742980244414e+00,-4.134949287075555979e+00,1.026309448741198338e+00,-1.118830718331984331e+00,1.774276877772649197e+00
-4.535952675612497487e+00,-4.795527786714885998e+00,-7.369636434187855301e+00,-5.066336678822436212e+00,5.752176399343878366e+00,2.657400460027500699e+01,-2.186447470097416357e+00,-3.937812673934356855e+00
1.981489924991386209e+00,1.501578643217107212e+00,-5.458260782939508005e-01,-1.786841531456913046e-01,6.044229946400941245e+00,1.257550637640376401e+01,1.991222741737306734e+00,1.230375376686611677e+00
-8.318950861963680943e-02,5.182914987425573106e-01,-9.518916078951282778e-01,-2.362650807883292181e+00,-5.229655591524116076e-01,2.452290087935306673e+00,1.893115163899637743e+00,8.314606507312711781e-01
-1.957413679863294176e+00,-1.893004034978906347e+00,-2.011116333429543879e+00,-3.510803431053867385e+00,-3.227025635229825884e+00,-9.180656124127853701e+00,2.068422669226816168e+00,7.233346305260384135e-01
-4.846209446702007817e-01,-8.484539387049302439e-01,-1.385866542771885257e-01,1.993276656654257017e-01,-1.075735439177872177e+00,-7.394552449341562195e+00,1.352609202026471280e+00,1.254236887302707659e+00
5.126771389183100158e-01,9.891162258241779082e-01,1.914703824229280205e+00,6.809751473438561575e+00,2.799928095493934066e+00,-1.544483729989186038e+00,2.416691975292368788e-01,7.380405271135687117e-01
1.355998144618563384e+00,1.419928489529647120e+00,1.341786296184170446e+00,6.467884934174495948e-01,5.789075097300248274e+00,3.433131883232283244e-01,2.960033114291198419e-01,1.131048904562617530e+00
-2.121488917597645241e+00,-1.179748693796545123e+00,1.309875779085284631e+00,-4.883070310554304072e+00,-2.537019889252078997e+00,-8.194379765262567616e+00,-3.756321030478394274e+00,-4.289136121884713049e+00
-2.164772996539960914e+00,-3.647414856479977985e+00,-5.601033773310417629e+00,-2.723920137466397939e+00,-3.844364363203966128e+00,-7.076187463191334182e+00,-2.677597293276232637e+00,-3.547566183130629547e+00
1.237731810232011398e+00,7.616503268881427147e-01,2.606100717783812470e-01,2.184428837415470781e+00,-4.474930774565599734e-02,1.516562562294362593e+00,2.152797592445529595e+00,1.452065422181011201e+00
-2.335716289790241262e+00,-1.649721693005844703e+00,-9.691109599054978929e-01,-1.416314119388422554e+00,-4.900503927720952113e+00,2.247541969329542866e+00,-2.385162002486739929e+00,-2.927633076267944556e+00
2.695482603422883372e+00,2.898280168746620866e+00,3.253519385911037176e+00,1.888317617264169135e+00,-1.505669452494558413e+00,3.299977656264863946e+00,1.243826236918055272e+00,1.218552965749524208e+00
5.388046298348883489e+00,6.720159083966525060e+00,5.764401225837449516e+00,4.500116672296980980e+00,-1.671341400510891084e+00,-8.133361701802046539e+00,2.030900395457180263e+00,4.647278203260962748e+00
4.377333245243674398e+00,4.893000063627276575e+00,4.486102819831370603e+00,4.401488940791852045e+00,-6.533834972345897718e-02,-3.702811714072982596e+00,3.655531265202706326e+00,4.384710501327488963e+00
2.794815447769028793e+00,2.493525694852101626e+00,1.357253205830877274e+00,-4.002615036900349921e-01,3.294277500957421445e+00,1.080602478492960827e+01,3.534142743306148748e+00,3.230222533792814321e+00
-9.174343992415132654e-01,-1.196074311515709532e+00,-1.767535700123793241e+00,1.369193904073742196e-01,7.331485670952778477e+00,1.038412193242521653e+01,1.639640526771723561e+00,3.248770311158533097e-01
-5.698110385557570545e+00,-5.701965217106958583e+00,-4.566236776720218771e+00,-1.974113639070972592e+00,5.047394842531685022e-01,-5.667064501293294754e+00,-4.408879192531805380e+00,-4.827227902078422339e+00
-4.925396216204052990e+00,-5.637442661113768239e+00,-3.337362683213046743e+00,-3.762532013045645662e+00,-2.897122657660630374e+00,-7.577934942827919684e+00,-4.241663927880296114e+00,-4.422776574766075441e+00
9.698771420895013762e-01,6.376508862688714530e-01,1.617558623616309532e+00,1.301288764388028873e-01,-2.893720805608190894e-01,-2.741768427534898578e+00,3.470819508905811368e-01,1.142897664641548072e+00
2.514510013579786651e+00,2.061754091235555642e+00,2.421427389998644042e+00,9.953683996595441563e-01,3.388898200317157716e+00,2.821444878126818878e+00,1.722136353988123592e+00,2.729987588686881406e+00
5.857663182585597372e-01,-7.208866222586851613e-02,-1.350719127133944153e-01,-1.171782943451363357e+00,1.101600423606715839e+00,2.330916657972260442e+00,-5.037629451889422683e-01,7.427322619824926475e-01
5.405662235514337999e-01,8.062826113531618155e-01,5.801879452091849299e-01,1.071431437499797523e+00,-2.963777377565176341e+00,3.250296671112745450e+00,1.387596325561185173e+00,9.704707239345199410e-01
1.089318814795937396e+00,4.085630051602653356e-01,-5.554348350448755633e-01,-2.859587738579439709e+00,-3.317904219574060232e+00,2.913647680500679460e+00,2.089035651862725107e+00,1.121024752531661006e+00
4.813393834461903165e-01,4.902842510935668807e-01,1.055062317800797622e+00,1.602716166760618233e+00,9.526792819093898856e-02,4.620726290981367335e-01,-1.370400660455081132e-01,2.608249043507750997e-01
-3.887140616802853721e+00,-3.474451241334985951e+00,-3.380290406123868330e+00,-9.128145488284070685e-01,3.325217309301964352e-01,1.466463918256982302e+00,-3.613849707884297491e+00,-4.190389673104564672e+00
-2.059719309404826504e+00,-2.258146426729792822e+00,-2.424646572388545085e+00,2.153202127366974139e+00,3.129007954880298037e+00,4.437895615669255278e+00,-2.117661236522017099e+00,-2.571543908554049462e+00
2.436573904620458197e-01,1.124853028120014642e+00,6.170546973758193054e-01,3.586919474360384719e+00,3.670562164567353847e+00,6.058792260013738051e+00,-8.765066371186169825e-02,2.216254571959055397e-01
-2.702460327565283205e+00,-2.662192619540064698e+00,-3.255903854480785231e+00,-1.994952425362800597e+00,-1.778568245061413311e+00,-1.140372101905243518e+00,-2.295275564764382104e+00,-2.517108312801657366e+00
-4.278316880455044213e+00,-4.876246774683050234e+00,-5.804041571741596961e+00,-9.937640657713036063e+00,-7.340239932471844142e+00,-2.652289616623532797e+00,-3.083114804040543167e+00,-4.493704528800008369e+00
2.360818592104910962e+00,2.443079115452981842e+00,9.686308869980897462e-01,-4.455723972405681188e+00,-1.127381507504395808e+00,3.602241285342790089e+00,1.638603641034907632e+00,1.514427339670595618e+00
2.454652029340293584e+00,3.421548131216749500e+00,2.579300270392451910e+00,2.374805333522957973e-01,1.716090034540489029e+00,5.251472059081965682e+00,1.064333994327180788e+00,2.299514449438661678e+00
1.866531260554898264e+00,3.467006998438933785e+00,4.053435087148645088e+00,5.828170669969890305e+00,3.616928197173184589e+00,4.457101892507795426e-01,5.417153772436192893e-01,1.459374174940407221e+00
1.555883358128889782e+00,1.838057062161438937e+00,2.831539367167773769e+00,5.231157120803040073e+00,-3.886976256176666755e+00,-3.324864770044422357e+01,2.014871960983461108e+00,1.474385686385900618e+00
5.209372659929358385e+00,5.089273464355822618e+00,5.434597810744016044e+00,6.330574915271831138e+00,-6.874127978298053776e+00,-3.662456122508142897e+01,6.089020967407233975e+00,5.863373793458102945e+00
4.140815224676389406e+00,4.180510765381023397e+00,4.679547722136820909e+00,6.506455502783936140e+00,-3.449570200931962649e+00,-1.035909137955482962e+01,3.553522026520504085e+00,4.439625474569896646e+00
6.072520302087540678e-01,-1.734646376543147461e-01,5.680994776280980929e-01,-8.315726690790663511e-01,9.049505001632113022e+00,2.727765597819271193e+01,-4.011526188109995061e-01,1.157657108138536728e-01
-3.326878356895971223e+00,-3.562226621184858999e+00,-2.687421571832369516e+00,-3.065757989522938765e+00,5.775512853718407058e+00,2.724246494774683924e+01,-2.967682261413761680e+00,-4.034001352488468584e+00
-2.761488957534570243e+00,-1.678787636934139460e+00,-3.367352219574897720e+00,-1.840423035519425099e+00,1.379109391636117454e+00,9.275313510294083130e+00,-3.108413243204172005e+00,-2.645011037640570883e+00
-2.406383258721806584e+00,-2.325753232123934477e+00,-2.082096468424829094e+00,-2.222389330128282658e-01,1.433843929739858414e+00,3.286121276033924232e+00,-1.909702404493903494e+00,-1.332653524118506017e+00
1.798544960236339030e-01,-1.674363358573297766e+00,3.528459842843654215e-01,1.706671826749162069e+00,5.579245944173958804e+00,7.952806956306400110e+00,2.605832428880494156e+00,1.331442202439312883e+00
-1.667308689092752871e+00,-3.139264699166823824e+00,-2.498210921348884117e+00,-2.346016248363120837e+00,2.111463845195743261e+00,6.052790092871751071e+00,-1.488300607991177582e-01,-1.202954076102748404e+00
-2.504288673625005845e+00,-3.849376990636604212e+00,-4.238515416683120485e+00,-6.976592623910278235e+00,-5.226441809073893552e+00,-2.979388800686406213e+00,-2.097139437653748661e+00,-2.518530657739123324e+00
1.893138639329158490e+00,8.330344054087635008e-01,5.968344538709025038e-01,-3.544390322652486880e+00,-5.259178747925968622e+00,-1.146329630379328179e+01,3.038369239106197828e-01,1.372668662506993265e+00
-2.268758710626352482e+00,-3.165802272241325710e+00,-3.009046695572731522e+00,-6.771490456450005802e+00,-9.007022098976012359e+00,-1.438705341644055480e+01,-3.161258895464443164e+00,-2.458676360814213702e+00
-2.135258278038052016e+00,-2.935318791942613803e+00,-4.616552048495085714e+00,-6.766656246494461513e+00,-4.178272647888162439e+00,-2.510821664775380491e+00,-1.646215502956040133e+00,-2.571008748645695619e+00
2.301941513001049877e+00,2.202569873192433914e+00,1.853388422831364402e+00,3.406245184872162213e+00,6.903495396488356306e+00,9.157652306457368496e+00,2.840649718787008116e+00,1.292183566229584635e+00
1.829936489970094726e+00,7.189636142976461031e+00,8.396535450265639966e+00,1.202513871151188063e+01,1.105536618014091843e+01,1.237376696309689272e+01,2.544976118958607536e+00,2.050197089658678085e+00
2.633672833452343376e+00,5.699987947780066122e+00,5.064148390660279553e+00,5.711414149561644393e+00,6.120547123459929573e-01,4.519937633039912583e+00,1.670285319138380853e+00,2.838856390653224704e+00
6.104654504656390479e-01,1.205634218737370755e+00,4.504032765386032366e-01,-6.921968588696563174e-01,-5.763841294027411521e+00,6.578748335641608769e-01,-1.308676141451413422e+00,-1.408591141040094197e-01
1.994457618143710587e+00,2.181754812688870171e+00,2.121090900642595756e+00,1.942109223164591558e+00,1.006867322563133493e+00,5.105847359419704024e-01,1.484014958665528017e+00,1.880285635469043592e+00
-3.388643038404777208e+00,-3.699771866978209367e+00,-3.651764329671085552e+00,-2.696385329685996535e+00,-2.755244199845828135e+00,-1.558409247525204222e+01,-1.936755347637082458e+00,-2.018571417704836168e+00
-3.860798280010555583e-01,-1.075261732872154319e+00,-1.080131987509166391e+00,-1.010833703150332052e+00,-4.664209643588623777e+00,-1.085526630468849696e+01,-2.646646480853706240e+00,-8.037826445667489716e-02
1.978616228694293655e+00,1.481412667656581750e+00,2.095043548193906702e+00,2.714556257076181645e+00,-2.218710180125138542e+00,-9.048495383054193653e+00,6.385239876463655317e-01,3.111651332845370987e+00
-2.548813078832737222e+00,-3.384216200229086091e+00,-3.451697852599839411e+00,-1.269339707828955000e+00,-5.292276120395873473e-01,-8.793271889106407002e+00,-7.746632652254058504e-01,-2.199712622196572376e+00
-8.162422382354715955e-01,-1.574898901360988646e+00,-1.900606127387104216e+00,-1.301488850457822588e+00,4.676123774996985283e-01,4.139062411322031565e+00,-7.713069864087896965e-01,-1.307197961235925687e+00
6.382037841936971656e-02,-1.253582223888273894e+00,-2.214159156472029988e+00,-2.224036076265364592e+00,3.806173339043504189e+00,1.763327575463205221e+01,1.110656058954230030e+00,-7.160735214761122513e-01
1.224837788735628319e+00,5.190940511270194513e-01,4.704016958611250132e-01,2.074878540611746924e+00,5.298990479188674385e+00,2.862033784148613869e+00,2.199555664085548923e+00,1.264028333093050849e+00
-1.541281511048865571e+00,-1.775666161526738174e+00,-1.539309863534377154e+00,-1.309990839115477979e+00,-3.850141364091729024e+00,-5.162332301076249408e+00,-2.031599528292281853e+00,-2.759483490033940889e+00
2.426752467738868990e+00,2.404798069775043956e+00,2.705057464974917725e+00,1.823415746639861945e+00,-3.047368369107045893e+00,6.313797796053508549e-01,2.956596024882495843e+00,2.092976746043940128e+00
5.009669360143074179e+00,5.523775261740034637e+00,5.933170422338806205e+00,6.329838515759629303e+00,7.783181391970476426e+00,8.491817016837682530e+00,4.787482196642836030e+00,4.882214682269888861e+00
3.722520646683552314e+00,5.380425286003037044e+00,6.256659093866268506e+00,9.607990771587481049e+00,8.328791793062784166e+00,1.322696693761411879e+01,1.906952780958525606e+00,2.961501578569263771e+00
-2.137428477553614758e+00,-2.469971418659023144e+00,-4.260630035780231140e+00,-3.574674947165791927e+00,-1.958455949341477265e+00,-5.601455450370645295e+00,-1.501499062442905874e+00,-2.097124502491522602e+00
-5.415688629212315419e+00,-6.458212420490021977e+00,-7.549640128821527796e+00,-1.058926962968587304e+01,-5.577960281146420840e+00,-4.810705442768833606e+00,-3.902970047353526262e+00,-4.906204694537625421e+00
-4.103750188167550661e+00,-4.276886129984424301e+00,-4.087579212338137147e+00,-5.698340681989131795e+00,-3.040917816043781308e+00,-4.551893372992196873e+00,-2.577412290985774401e+00,-3.130640690585972052e+00
1.987418843596587159e+00,1.837796557761739003e+00,2.907894281244864487e+00,1.229904427626320462e+00,2.308619191750910904e+00,1.172419669094093120e+00,2.103016609070656795e+00,2.234443827255637505e+00
1.570397154975847975e+00,1.128444174377834841e+00,2.954056486570230788e+00,1.844008071480569555e+00,2.678219637582166079e+00,4.539916515945982667e+00,1.332921812700809783e+00,1.594585421504720157e+00
-2.717835653282140385e+00,-2.405571386950153823e+00,-1.815460728721730810e+00,-3.849011411734738708e+00,-2.451167473154634902e+00,6.672205183577797349e-01,-2.645793439820435466e+00,-2.481839620527090062e+00
-2.775625654433047540e+00,-2.011027640250731885e+00,-6.685740269865529939e-01,-5.011898394010930069e+00,-4.383577931786293291e+00,-2.916188967610543692e+00,-3.680571936423132851e+00,-2.599886609465844600e+00
-8.731462641846892136e-01,2.038208045104128452e-02,3.099698918556203608e+00,-7.233937044828118168e-01,2.837978124171454120e-01,1.434039178774418222e+00,-2.331843314149173452e+00,-7.706349876752248695e-01
1.197509403892090152e+00,9.997699209924370001e-01,-3.276682087511786357e-01,4.725918146378870865e+00,4.117515145397885767e+00,5.719003165755744966e+00,1.961345169461045534e+00,2.262680014368998460e+00
-1.186121541908367938e+00,-2.058148104055385730e+00,-4.277672881303906216e+00,-2.654299102058175652e+00,-2.252066881772343265e+00,1.783538148670099410e+00,-7.469162553638706292e-01,-1.436595357342888235e+00
9.212562737327486539e-01,1.810815046070736622e+00,3.318723741791429482e-01,1.885833633005510879e-01,-1.987851305882262887e+00,1.765699294301165345e+00,4.307326177453718596e-03,-2.011172804515684587e-01
2.447948133490606359e+00,3.218392484459998482e+00,2.821548073540836477e+00,5.764524757308375769e+00,1.555957487563685682e+00,3.418651640099332312e+00,2.485624793685775380e+00,2.503746026418290693e+00
-4.854733556606782852e-01,-1.611957835313564402e-01,-8.882641724085713619e-01,5.247542706516257205e-01,-1.688039182508549896e+00,1.283222265253920691e+00,9.745710724715166418e-01,2.095802917394862241e-02
2.885420799977211903e+00,3.332135688793900652e+00,2.397253366820143672e+00,3.627815687298119762e+00,4.435468351910912821e-01,-6.239505839252243113e+00,3.167675090523617509e+00,3.193755489566183492e+00
1.587461210242242737e+00,2.074877942588785551e+00,1.506848243291703859e+00,1.407056753004282790e+00,-6.517890130454404130e+00,-4.119799206125394164e+01,9.269011724119824436e-02,1.800997639838004316e+00
2.850349391618069994e-01,-3.008804389774981658e-01,-3.074838023798287523e-01,1.157462894200047554e+00,-6.857064635779158479e+00,-3.260951188954729218e+01,-1.717602425896038287e+00,-5.476345074015940284e-01
2.899613387207535808e+00,1.875397713142330280e+00,1.793333307160642542e+00,2.334732168833984822e+00,-1.061658072554570342e+00,-3.693568346951607850e-01,-9.976409487279473964e-01,8.054782035375402938e-01
5.476147453510109564e-01,5.495831725660305089e-02,-6.907603585199106888e-02,-7.639201322942223982e-02,8.328727987467608784e+00,3.320497704660844818e+01,-5.878566874449699942e-01,-1.517690789577006427e-01
-6.504334987504372112e-01,-8.980560374462303042e-01,-3.599725698963823772e-01,2.053975866471591250e-01,8.469313418351326561e+00,2.628277502819602773e+01,1.428488194745792361e+00,-2.074500340370151186e-01
-4.749520970946420562e+00,-5.108898135936543738e+00,-3.427818149220815513e+00,-3.081155295578279052e+00,3.420229316614793902e+00,1.200900742129704746e+01,-3.011160489542830554e+00,-4.613248162631872873e+00
-3.595677517254739275e+00,-2.807682835686927447e+00,-1.995800961568994225e+00,-2.473367280618880226e+00,1.160646422005728873e+00,6.504440547368213643e+00,-5.844052520283035124e-01,-3.345604137870222150e+00
-2.023323420142984830e+00,-2.335482282095452611e+00,-2.260400274200297766e+00,-2.883002973688771675e+00,-7.670704615275689697e-01,-1.538362062940787922e-01,-3.837001250069187464e-01,-1.520057418018267548e+00
3.163751717144189790e+00,1.775795357097136318e+00,2.205211378572159209e+00,7.326835378416247657e-01,4.752739690201810419e-01,-6.309820935031194011e-01,2.184980122609083253e+00,3.534442927730863104e+00
3.887467888012648309e+00,3.422098814741702189e+00,2.926788091133483594e+00,8.554669422479483920e-01,1.649554977871842798e+00,1.179729549426733470e+00,3.174243228155670948e+00,4.046462176040170888e+00
-1.044807686231667310e+00,-1.759315155150846799e+00,-2.828558429532761487e+00,-4.647269762870882559e+00,-2.953189566679135236e+00,-4.469123526471365793e+00,-9.746273041748594324e-01,-1.141467195621319375e+00
-3.390603723795420077e+00,-3.945309343317252360e+00,-4.982003830556893220e+00,-5.844642149358238115e+00,-3.129690803933645071e+00,-4.052898019766004722e+00,-1.100643491582620648e+00,-2.229054625151266844e+00
1.301901786066489874e+00,1.630782941152058907e+00,1.441733863565918483e+00,3.175701780056314760e-01,-6.135323152473752817e-01,-6.057458146044655933e+00,2.465291071952315782e+00,1.786957285680405905e+00
3.880987599054867232e+00,5.214189946797828767e+00,4.572697248615408050e+00,4.653398246837089580e+00,-5.942542408221087591e-01,-9.475230686692132309e+00,3.983130406373575738e+00,4.487097765749243905e+00
3.679443742519124427e+00,4.752347427516922629e+00,4.471786066779593227e+00,5.229546355136871050e+00,-2.091694218793964666e-01,-5.000933769636115578e+00,3.051867146866233060e+00,3.546145508199578522e+00
-3.488353052303295065e+00,-2.387372329748290944e+00,-1.356179340416522106e+00,-1.502862945494993774e-01,1.118812148863275180e-01,8.989070169007712607e+00,-3.379028282713152809e+00,-3.460685692301458616e+00
-1.730992355963375751e+00,-4.528716780960930777e-01,1.246071561802345240e+00,9.755180613033616055e-01,-8.098880498022872354e-01,1.540218121586533329e+01,-2.197861200795547365e+00,-1.980067903443011978e+00
-6.609573989149608586e-01,8.082436030298205676e-01,2.285888147302873818e+00,4.003794252298089162e+00,4.056500300257077640e-01,-1.929257651905134097e-01,-3.110844042443257074e+00,-8.366396550107410013e-01
-1.074431630337048249e-01,-8.218397459154880291e-02,-1.144141668647509213e-01,2.037824282338949633e+00,-6.973403038615607619e-01,-1.308603798102791593e+01,-2.040863513075832358e+00,-1.068036648696264912e+00
7.960483482232505459e-02,-3.326862837663678296e-01,-1.719942249619753616e+00,-3.233832930728287369e+00,-1.110762091008730135e-01,-5.838441874562146694e+00,-1.107267271616430016e-01,-4.675849554914872641e-01
1.523232714163887946e-01,-9.343750449896974786e-01,-1.589412232303939909e+00,-1.176056946208678067e+00,-4.353909599937172969e-01,1.033306643970731464e+00,7.000000794629190892e-02,-2.803320382671699029e-01
-2.832551925409585003e+00,-4.336791564445017677e+00,-4.539114569515126263e+00,-3.098195176151528507e+00,8.884441380403715893e-01,2.740305608902700918e+00,-2.265440014430578408e+00,-3.153135355070205037e+00
-2.728403980284381802e+00,-3.273403428354563882e+00,-2.971733704535037379e+00,-1.348102678899039786e+00,1.005307088499061141e+00,4.986930031856437573e+00,-2.517283264552873323e+00,-2.924753450636220720e+00
1.249412093307907146e+00,1.579525029588760621e+00,1.792922295746904648e+00,2.325229555038475837e+00,1.432390976877522704e+00,3.653376216385896935e+00,1.481350945018153897e+00,1.984442496469398964e+00
2.848042267960050999e+00,2.087535824839620080e+00,3.090498162297350859e+00,3.257672602610804269e+00,-3.638486390234942913e-01,-3.503116632282023080e+00,2.886392971266982244e+00,2.940935487298198314e+00
7.981488311383951872e-01,-2.056615422156343187e-01,5.641322067505906146e-01,6.161234735038961796e-01,-3.859472843162296218e+00,-6.262988859363080030e-01,1.655583994894767486e+00,6.136945568427489839e-01
2.018139974152523219e+00,1.345661872602464282e+00,9.627588269974021173e-01,-3.208804206018962546e+00,-2.926852236548440178e+00,-1.135143138273935115e+01,1.980984874825847619e+00,2.292203719635707682e+00
2.130473162115122054e+00,2.412353648900007475e+00,2.853292227949113080e+00,1.180010015729413331e+00,3.937497298738683593e-01,-1.329982183718028566e+01,2.196736360403765520e+00,2.634036789173159754e+00
5.921141707108374952e-01,8.528141723923230444e-01,1.485486378824433240e+00,1.447838466764749032e+00,3.789802970418973960e+00,7.752705111420505446e+00,1.515881431929755330e-01,7.032778833877726399e-01
-5.097924592087367479e+00,-4.985804293880991445e+00,-5.195101953996968724e+00,-5.294098307171875462e+00,7.183685674931388210e-01,1.802900135810634907e+01,-5.882167482128931368e+00,-5.241516458632188957e+00
-5.138714847199378433e+00,-5.053613330123461367e+00,-4.618904696636388252e+00,-3.575927152937448561e+00,1.059212544336441297e+00,1.085226727831740767e+01,-3.321600328920412348e+00,-4.547699518489476844e+00
4.707006776018061167e-01,2.962116868719826268e-01,-2.427645688692235737e+00,-3.823914490036910419e+00,5.666452415940440801e+00,1.342439721568010214e+01,2.600154994920369056e+00,1.650519412746577874e+00
1.118379208894459742e+00,1.443178978729648732e+00,-1.021700892410642103e+00,-9.163081580766134770e-01,2.053290304805451605e+00,6.690818281971520065e+00,2.162548650436118436e+00,1.322111221484492782e+00
-1.488825173206610675e+00,6.188808892725345956e-01,4.294307318166996623e-01,1.183570958343412638e+00,-1.474023076393028209e+00,-2.327969308648540903e+00,-1.407226303927480826e+00,-2.262833281364791560e+00
3.372230975102302075e+00,4.149427617350036179e+00,3.972857177027872666e+00,4.008123022468609520e+00,1.078860724223522638e-01,-3.349223401954301238e+00,1.484278585109587434e+00,2.479648171279451141e+00
-2.842560479294349296e-01,-4.601124650649466297e-01,-4.879481127156481968e-02,2.158413258568516291e+00,-4.372270372252183179e+00,-2.327618372572853644e+01,-2.387886669737073753e+00,-1.781217129764007145e+00
2.005338267199626046e+00,1.432010732034751932e+00,2.894537679635209582e-01,6.046852551107964047e-01,-9.541645680507759408e+00,-4.644801691846623726e+01,-5.575024934359886775e-01,5.121605568173309697e-01
4.758428634765039078e+00,5.425783307067137073e+00,5.390067643036196898e+00,5.823673318226901152e+00,-3.522965931590465338e+00,-2.324332464378618113e+01,3.543836062472330184e+00,4.131859903002445655e+00
3.667117315249124321e+00,4.532589726145978659e+00,5.492702834135865686e+00,5.971343093009395808e+00,2.653718961157480294e+00,8.437568920334999945e+00,2.441566765330407396e+00,3.573318079176129203e+00
-1.459761475147203225e+00,-1.764302620408612299e+00,-1.564948925537637869e+00,-3.112391349267478624e+00,1.642165405626262675e+00,3.230734110123486147e+01,-2.503056107145802400e+00,-1.173460690609593460e+00
-6.227829562959694698e-01,-2.726841017066081729e+00,-3.592248383039094328e+00,-5.298835072200247076e+00,-1.632047523691730007e+00,2.696601594722824302e+01,8.693236299205890916e-01,1.333039763863455685e+00
-1.493030990059403429e+00,-3.146082594504027163e+00,-3.280100180268160859e+00,-2.887939811033467752e+00,4.381372136081799873e+00,7.957449268326683978e+00,1.723805069403524737e+00,4.443754999525553195e-01
-5.566498480021643047e+00,-6.321589581835857174e+00,-4.984176631549886771e+00,-4.684252425955374832e+00,2.934465916435144983e-01,-1.209650104506595270e+00,-3.745698168222960422e+00,-5.044800354463849779e+00
-1.791863272613469560e+00,-6.813814382950860171e-01,4.343380116125710622e+00,4.898069161126765714e+00,6.636724127699428877e+00,6.400834146801808622e+00,3.518711585331275593e-01,-1.172375087184020614e+00
1.909793234909185955e+00,5.278494806295707775e+00,1.281756044758375523e+01,9.135010802995905621e+00,9.932047551505290173e+00,7.604627009405920290e+00,2.884581275562961622e+00,1.622721549357613924e+00
4.690554068601768822e-01,-2.827389031093346938e-01,-2.936152042055736544e+00,-3.082450094288294640e+00,-1.267493133992934062e+00,-3.194821501420442189e+00,8.594294309451777636e-01,5.666024067816621823e-01
-2.160066154575171371e+00,-4.100327380388722354e+00,-7.504048599062250524e+00,-3.474808994739075452e+00,-7.601319056317112910e+00,-1.244564379909895280e+01,-1.794290175360595319e+00,-2.132719687246464435e+00
9.781428149653916826e-01,6.296529235137993119e-02,-2.056532186578345911e+00,-3.662272919514670821e-01,-3.096445554739776007e+00,-6.493666447706900158e+00,1.718796848067736249e+00,1.674484028845712791e+00
9.646922362247838389e-01,3.838815807243565192e-01,-7.477833613172752969e-01,-2.390863447667515018e+00,-1.452536517778293845e+00,-4.463947703589775884e+00,-1.999597481598741344e-01,1.108507558426197193e-01
3.179846235955971601e+00,4.260542320530304572e+00,3.383580864232073715e+00,3.330410040715190867e+00,1.437155439608722052e+00,1.766021489476617745e+00,1.710491103412656644e+00,2.150653491384687754e+00
-8.674267051164206155e-01,2.544455435660049059e-01,-1.454488027721689170e+00,-7.374710238549473384e-01,-2.894986658525448231e+00,7.517214276920736182e-01,-2.901699418402662101e+00,-2.186377254720180741e+00
-2.949270076867151147e+00,-2.955001075416868517e+00,-3.366331315068509245e+00,-2.766947637749498590e+00,-2.751719339047808965e+00,4.390513096437365093e+00,-3.860990978275065988e+00,-3.918985698884180913e+00
-1.660514023196692834e+00,-1.718446091285281252e+00,-1.885972412902060524e+00,-8.125199783858956248e-01,-6.330380665624608660e-01,5.750245557659275697e+00,-1.594531889449825268e+00,-1.532349299281150490e+00
-2.711928915424856701e+00,-2.580480940152988900e+00,-2.860604874025368449e+00,-1.434444110967959096e+00,7.827472473380492346e-02,5.090288590136003322e+00,-1.170569586490612934e+00,-2.144671962795355213e+00
4.352346165826379121e+00,4.605443029106467634e+00,4.372680996832658984e+00,3.838016279902552785e+00,4.437002954569817526e+00,-6.551775796192952583e+00,1.994988869042915836e+00,4.479750221584436254e+00
3.221610763081552253e+00,3.865874790109808501e+00,4.503086516442794007e+00,2.639668556748078654e+00,3.437510745921358080e+00,-7.520808073944738936e+00,1.493708033062971507e-01,2.618375672922158337e+00
2.125764546175404224e+00,2.799060113240820602e+00,2.451786275344583821e+00,1.035740090781382960e+00,1.435469979277293584e+00,-2.093622876636386909e+00,2.183055487069746725e+00,2.402876583637039598e+00
9.963240264532737811e-01,3.065024843428636458e-01,-4.577850383905621712e-01,-1.490592159307724707e+00,3.798995244952905193e-01,-7.778481829990577801e-01,2.214083947736927183e+00,1.407244915263520246e+00
4.065173254832992189e-01,-3.609980858037200591e-01,2.690449781475745539e-01,-1.890309143345516141e+00,-5.859336591766024505e-01,-6.775554626093160948e-01,2.114154164484284060e+00,8.057069083229484452e-01
-4.023000980092763967e+00,-4.219649328953065215e+00,-2.873431437164824853e+00,-3.360379938526627974e+00,-2.566198065799286443e+00,-3.695091898496585259e+00,-2.740653787084555315e+00,-4.232059680199961704e+00
-3.215488728747421643e+00,-2.891233906064320625e+00,-1.894450623285785840e+00,-9.444107571056153949e-01,-2.504738555400624733e+00,-4.882077144348753173e+00,-3.686397881124294784e+00,-3.593784944886307287e+00
1.006646563599338684e+00,1.936705264428381090e+00,3.612801094033056604e+00,4.441520301173135010e+00,-4.496478266119090961e+00,-9.441948612759450299e+00,3.352699997514418939e-02,1.025282417854347150e+00
-1.793514145123310533e-01,-5.911964071461389691e-01,5.507755603858799365e-01,-3.048560159374225087e+00,-5.321743748714311550e+00,-6.284722371719556833e+00,7.318362730010204986e-01,5.541714392952832302e-01
-9.866617527356273953e-01,-2.373362334905782856e+00,-4.268987708763472000e+00,-2.914120537886019768e+00,3.078174270196754492e+00,5.780709489582774196e+00,7.405917424680998895e-01,-1.778142224446907504e-01
2.737614082328075904e-01,-9.417919812633934740e-02,-3.609040110250221201e-01,9.043671140867568514e-01,4.224095810846709043e+00,1.676301641725000380e+01,-9.283867323040106978e-01,1.159333920812086888e-01
-2.228607696621907941e+00,-2.707412296568855403e+00,-2.317829326940231915e+00,3.693212186464836511e-01,4.662578621865252515e+00,1.069877489505112678e+01,-1.185753884705635031e+00,-1.425746399766421479e+00
3.559158127770891689e-01,1.273985143426457078e-01,-2.236642692398704835e-01,1.825978047236485491e+00,4.505009334839315649e+00,8.600910617137031977e+00,1.650854630004309209e+00,7.237089667930155512e-01
2.416453041473979546e+00,2.408440039066128247e+00,2.346464808796118184e+00,2.296316146647561673e+00,1.320558879504973415e+00,5.551981050212122071e+00,2.545714080105129451e+00,1.874859014911151478e+00
1.420155285621233388e+00,1.859163005878218478e+00,2.473384753605530673e+00,1.963491358028681688e+00,8.166760330503697318e-02,5.170210561398593363e+00,1.923890197606680230e+00,1.394776648294343779e+00
-1.606257134978759105e+00,-1.439823102080599160e+00,1.774079272530346696e-01,1.599739438138269687e+00,5.552067233603654728e-01,5.047608044365349933e+00,-1.781525078588989341e+00,-2.440835013064903691e+00
-6.343715912777674326e-01,-9.870583434826696312e-01,-1.133500301010032629e+00,3.109140157273180272e-01,2.689879896526023995e-01,5.485342646577900716e+00,-7.168671619426255637e-01,-4.120915205642389223e-01
-8.498264905445654382e-02,-6.652544493740887299e-01,-3.257844897853152233e+00,-5.488225918943889781e+00,-6.585606496428250800e+00,3.909192962876915090e-01,2.026320843215292933e-01,1.688824759963871158e-01
1.169615949068278704e+00,1.182533286621436197e+00,-4.911063080652886548e-01,-2.463285686897529914e+00,-1.203016580432184135e+01,-3.962950068515094415e+01,8.866328561194226632e-01,1.033038586345419674e+00
2.746747740268504767e+00,3.920423396836862029e+00,2.985599611485678651e+00,1.372142036682488353e+00,-1.062868066629756036e+01,-4.934348314142279435e+01,1.806580973134281898e+00,2.411901912730666897e+00
3.257630010283098621e+00,4.047914542484401856e+00,3.867901076143095196e+00,4.112661224582046415e+00,2.103253580330022743e+00,-1.036157264571637171e+01,3.617018500951775017e+00,3.367558682257048464e+00
-2.304406167365020242e+00,-5.842893927336101356e-01,-2.716820595021984808e-01,2.090306634629147897e+00,1.291580142882546589e+01,3.153079694838375246e+01,-5.290548079726844044e+00,-4.122127731950845586e+00
2.027684068779853632e+00,3.561401614091961321e+00,4.409775666261218419e+00,5.481401597392560276e+00,1.094639037911068513e+01,3.037534739941463613e+01,-1.302374489618899567e+00,1.048809505972550848e+00
2.508163187504224290e+00,2.881825949362389672e+00,2.697307210773062458e+00,2.546327592171929055e+00,9.633131807945582992e-01,6.176322726296707089e+00,2.654554329061074025e-01,2.190840258521970618e+00
8.537829586905281154e-01,7.371180281274412049e-01,-2.637486322627147217e-02,-3.313553839556394820e+00,4.414451514066897175e-01,2.396338793322533078e+00,7.304143026867051525e-01,1.262105508256624375e+00
-3.000883968635904786e+00,-3.037666255854769126e+00,-1.503960439144664596e+00,-3.010889853277355144e+00,1.262119795830619839e+00,8.519791978965205459e-01,-2.100429866859234718e+00,-3.017836945259378290e+00
-5.096881683846823385e+00,-6.313812303183784280e+00,-4.675620012032618789e+00,-4.368246059443984031e+00,-8.159085398209620088e-01,-8.567082209105283397e-01,-1.216561988418531026e+00,-3.808995362303597698e+00
-5.616334065247242435e+00,-6.808273107007186908e+00,-6.253237660387353181e+00,-5.833473579181939428e+00,-1.810344433250176355e+00,-6.748881631553675930e-01,-2.239071083224100533e+00,-3.506898284056967352e+00
-7.650106637744666926e-01,-2.184525864684104590e+00,-1.881149608780690041e+00,-7.262137945311124554e-01,1.237492925055670767e+00,5.152488001756960756e-01,-1.161303437780130121e-01,1.273317152281698839e-01
-1.177517194512668564e+00,-2.300581474645246427e+00,-2.224327448520183825e+00,-1.246481351287093808e+00,-1.075631458377687144e+00,-2.746833627693501700e+00,-4.882548354967666260e-01,-8.562908449278414658e-01
4.537921754603728708e+00,3.426446243378076240e+00,3.488772535999800084e+00,3.697440150637328671e+00,2.529149004504077869e+00,8.538186498520505818e-01,4.367928481424993237e+00,4.125289836835886348e+00
2.819610445537336751e+00,1.684156053915599749e+00,8.965169167839872610e-01,5.764319992202074916e-01,-1.651747409266488997e+00,-6.225931900653425277e-01,1.541366455186918616e+00,1.961172112198382722e+00
-1.217850288117471313e+00,-2.361134476887419176e+00,-3.993338376057062433e+00,-5.875286068743049483e+00,-9.397550932521262723e+00,-8.277132920982861464e+00,-1.641877028244246084e+00,-9.181920648241757021e-01
-4.883797599740941076e-01,-3.003982884721057012e-01,-1.460422104134439625e+00,-1.772476356445697121e+00,-7.624706432043568682e+00,-7.593018902940435133e+00,-2.442791071380057133e-01,-5.496449358739967650e-01
-2.387018151922989384e-01,1.531270431800537235e+00,1.301573251764403638e+00,3.233311343490275824e+00,-1.699953808553565260e+00,1.299677183487920828e+00,8.065445772056389906e-01,-3.650458040123816250e-01
3.497518055228448497e-01,2.560938775911689724e+00,3.663387578593330751e+00,5.278621612786396078e+00,1.144207071256903241e+00,1.309136596333308589e+01,6.398962821616878127e-01,-9.444394189744385049e-01
2.800981546712093539e-01,2.266733276316875489e+00,4.931417881114583679e+00,3.923679205059502184e+00,5.379144628388102589e+00,1.168647592582174610e+01,7.957152862047680575e-01,-7.232521803773369617e-01
1.117425546963890293e+00,2.660515912314908249e+00,4.601426727444996700e+00,1.739390162842168408e+00,5.685947680426139961e+00,8.604972684802323357e-01,-2.370247112006745871e-01,5.462388603888729266e-01
3.979420838821759787e+00,1.830020892121361875e+00,-9.676568603391060286e-01,1.855316567964619967e+00,5.333443414867202748e+00,-8.473209103688567723e+00,1.744587947842128006e+00,4.044935246111656113e+00
4.846012377817263683e-01,3.158870794994044218e-01,-2.632275298689772391e-01,9.636674980917390165e-01,9.753889476214236964e-01,-7.215571902535781845e+00,-7.946085038939518785e-01,4.327572102697372358e-01
3.089073261935166848e+00,3.871003310718143187e+00,4.731781652748770384e+00,4.411642017767770874e+00,3.243417481238747957e+00,2.142795652868034750e-01,1.610088299658372080e+00,2.801007716166769690e+00
-2.469824538544725723e+00,-1.562499862780574844e+00,-1.177268650783169779e+00,-1.089537651027870258e+00,-1.254384333123643280e+00,-5.474048878406336804e-01,-1.809225948118046823e+00,-1.442342118653848093e+00
-1.381413594617143081e+00,-1.483410383304914371e+00,-2.730927744813839819e+00,-1.779876506593711216e+00,-2.249723445831663948e+00,-2.226817545935855236e-01,8.600322551215006106e-02,-4.415197013924211378e-01
-4.437214736053313402e+00,-5.183763226947996294e+00,-5.876223635617281893e+00,-5.963687219750166690e+00,-6.154828487482871147e+00,-5.770292267766233607e+00,-2.846300951450032812e+00,-4.193833291200821378e+00
8.229423669566227062e-02,-1.002723640295360097e+00,-7.926779882930561349e-01,-1.820496199400440496e+00,-2.998429694729658923e+00,-7.623412104731288608e+00,-9.508245817987169834e-01,4.753200951022300558e-01
-3.101587379316404380e+00,-2.870987917457545002e+00,-3.936507336688822800e+00,-5.484494985492747610e+00,-2.907563049265736499e+00,-2.267182450526265658e+00,-2.558491681820410424e+00,-2.752238789437601696e+00
-1.828631783977455072e+00,-1.892520485324638013e+00,-2.575289883125748247e+00,-4.015001593073527886e+00,9.893223474702170783e-01,5.494405993540908639e+00,-2.207763956268116168e-01,-1.136499579077920874e+00
2.330341765035403689e+00,1.615851852264697630e+00,1.225832937764729014e+00,1.299705451850388549e+00,3.820354110829662808e+00,8.187386735848280139e+00,2.854056212370651657e+00,2.206850763381202452e+00
-7.530865632092851314e-01,-1.500231620610714023e+00,-2.646254410007133018e+00,-2.700716679999497494e+00,-5.249007259006770454e+00,-9.611196571557067969e-02,2.104259041706949274e-01,-2.251177530148075479e-01
2.985754115642158091e+00,1.801359036492694798e+00,1.099762425940989274e+00,-1.471565338832995451e+00,9.218671382278067483e-01,1.640597647938555781e+00,3.346317562373780863e+00,3.546758432207644418e+00
5.061097478982655495e+00,6.052131347125866867e+00,8.267638906414642719e+00,1.072320535366208105e+01,9.326520768890553370e+00,3.562347370534974633e+00,7.489953014469172832e-01,2.925703216187741873e+00
-2.596373553678699153e-01,9.556304689987655809e-01,4.688039991792249950e+00,8.704467840255635025e+00,6.755251457387970504e+00,1.015701296662630426e+01,-3.104128656705327227e+00,-2.326120342994151269e+00
-1.377147229306310727e+00,-7.556228235371937885e-01,8.000774604292355541e-01,2.906762355281014010e-01,-1.818669390497095861e+00,6.091790765808280383e+00,-2.120939469130249666e+00,-1.944165907369648894e+00
-9.885430543249396074e-01,-2.840597607566546667e+00,-5.200205419786703587e+00,-1.034801875655414349e+01,-4.737409639121993088e+00,3.387016278322825258e-01,9.377873192689027970e-01,-3.951314241278341410e-01
2.372612150587416480e+00,1.513350690650006047e+00,1.651031409579720499e+00,4.022717639355580133e+00,2.466151731302226757e+00,-5.157827349338406364e-01,3.809876952294300789e+00,2.722960991983470969e+00
-6.627823227624116686e-01,-5.237078894778357530e-01,-7.970752746991591753e-01,3.458446559094368045e-01,-1.919169508724971607e+00,7.064368143393893185e+00,-1.108515466737149957e+00,-9.300484078526782827e-01
-3.229933362664787921e+00,-2.735058683730720475e+00,-2.584542035381968361e+00,-6.300832767287014580e-01,2.083260648583070918e+00,1.166911459993229983e+01,-2.272863048987185941e+00,-2.652294511042019742e+00
-1.267150551094622601e+00,-2.054701113651732358e-01,6.187273627830935929e-01,1.427148700897567846e+00,-5.526803948546848311e+00,-3.341575385033017653e+01,-9.625976109316035645e-01,-1.234062994753291509e+00
1.439846159594433406e+00,1.599920430598734677e+00,1.118949676923189029e+00,5.335378888210412507e-01,-8.064447630991255167e+00,-4.643045660003506470e+01,3.690332991874978763e+00,1.938935982833815075e+00
5.381120388349439621e-01,1.038272562113065289e+00,-6.691949237275720552e-01,-1.948847213767644027e+00,-8.335520864607136815e+00,-1.875179277422681423e+01,1.253054473193401686e+00,8.347918080457010781e-01
-1.496299660464035786e-01,3.088786887829070293e-01,6.047122908985074208e-01,1.239310468832328649e+00,5.975688126979958881e+00,2.322467576568182324e+01,-4.120884829284933160e-01,4.088482242939274203e-01
-3.473623378253712923e-01,-5.188922638513361330e-01,-1.307654530471477339e-01,3.996474098391379348e-01,7.263154335049279098e+00,2.207482715740841428e+01,-4.105919104826938337e-02,-1.339130050126817739e-01
-1.113017780240476817e+00,-1.107323022068551488e+00,-1.324289104422717855e+00,-1.709646655758374933e+00,1.330631668542459511e+00,4.071130167518435705e+00,-2.848289621647505099e-01,-3.492748769451735069e-01
-3.164964781542344952e+00,-3.197407894972453590e+00,-3.254600519931833968e+00,-4.916412762768872291e+00,-1.034389932251411182e+00,4.955032100977041054e+00,-2.428044875967589888e+00,-2.231814245388622719e+00
3.722808508289452423e-01,5.225847838549397828e-01,2.305293475766410083e-01,-1.448958301309777097e+00,1.694041188689933808e+00,9.015527347598256469e+00,1.118243422374929130e+00,1.015244234852487271e+00
-1.473796213646641373e+00,-1.731859065612743054e+00,-1.666788929387860829e+00,-2.481118890543529076e+00,4.688679897684047138e-01,4.183742205497986255e+00,-1.792579468935191489e+00,-1.592009669996057308e+00
2.039455602455566563e-01,2.706184290253053071e-01,-3.717634088631105449e-01,1.642779684481920910e-02,1.185022277559657944e+00,3.395585159431052880e+00,-1.185668772929622916e+00,-7.542943499129077800e-01
5.292021570128138563e+00,5.731706956491939842e+00,5.115356522954099816e+00,5.116422750897100968e+00,2.951946626032837973e+00,2.328904182943196233e+00,1.753306496682105475e+00,3.980085488966496943e+00
6.445386591322414205e+00,7.328803451438378858e+00,8.211178462232815889e+00,6.996325602673101329e+00,5.724455802736816423e-02,-1.321862996213390318e+00,1.627716726968170269e-02,3.121564349009414929e+00
4.197163086821361411e+00,5.778256313323922200e+00,5.298978998158507814e+00,6.221776293248201029e+00,2.430049607802077460e+00,5.924408127143143687e+00,1.075675838581430011e+00,2.548278104297978075e+00
5.436325062057449919e-01,2.779923010662477267e-01,2.139614921211272502e-01,6.592858837110631143e-01,3.526418948695765110e+00,5.127368493130934013e+00,6.410908542513488184e-01,1.076037238557692621e+00
-4.623094587296580293e+00,-6.968403230373014345e+00,-6.287357179737186996e+00,-4.739252743073254059e+00,-2.611992406656340471e+00,-8.625402353603940142e+00,-1.776736385154126241e+00,-3.141801254206693983e+00
-5.262682717409667532e+00,-7.216952004068962978e+00,-6.445205706260022538e+00,-5.003400427848946563e+00,-5.927427145377130557e+00,-9.146053536410532203e+00,-1.576278323315777552e+00,-4.403192347880635182e+00
-2.870862881452893589e-01,-1.686098608309265501e-01,3.407698016005080710e-01,2.564581176570168708e-01,-2.016823618237680193e+00,7.346787988608856068e-01,2.448576595756802199e+00,1.647499803539584917e-01
-2.375744225619262018e+00,-2.599117131623196908e+00,-2.461305370844237839e+00,-1.923941155543662518e+00,-1.032906377024294109e+00,3.483153845078365674e+00,1.527885266889248639e+00,-1.656820688696635457e+00
6.074202941037643022e-01,-2.911155303502694913e-01,-7.217759753266093092e-01,3.273123515352693857e-01,4.063629866701747417e+00,1.160601207107216482e+00,2.210798406020336948e+00,1.446625587514889677e+00
-8.607972079432479884e-01,-1.431090033364167402e+00,-9.066598319442507048e-01,-5.868908643453957241e-01,3.219438251586776989e-01,-7.319748456184659524e+00,-2.655608170182552907e+00,-6.895640690045246046e-01
-2.114217193167018838e+00,-2.476357741511203692e+00,-2.941973511735605396e+00,-2.974650127807441979e+00,-2.042792871658534182e+00,-4.066335882876085606e+00,-2.050502301437981512e+00,-9.861417167251556037e-01
-3.072271851753554550e+00,-3.538651223556580128e+00,-4.135462721958422350e+00,-4.794249584290165345e+00,-4.039722229684846511e+00,-4.621644703464696136e+00,-2.749606933605318826e+00,-2.628737301632924073e+00
-3.662567826333380516e-01,2.489816042931449758e-01,2.255457160122507076e-01,-1.624233895814026996e+00,-2.599874549156194981e+00,-2.209243498270462069e+00,2.584844433625588245e-02,-4.573670232027639004e-01
1.978150397319954124e+00,2.568226425846931171e+00,2.695705649241730839e+00,5.755515777121398280e-01,-6.280090875301056474e-01,-1.135184753642949573e+00,1.631603631620078154e+00,1.648909639686131579e+00
-1.260073541070237502e+00,-1.543159748068627657e-01,-4.421845610892811695e-01,-6.044784220296667288e-01,-2.579882670345859719e+00,-4.259590622148935246e+00,-2.960814276178133753e+00,-2.151192868386988533e+00
3.858096271535335298e+00,4.953330064527211363e+00,4.410732387357566786e+00,3.936867440199411483e+00,1.284178939067743386e+00,1.515283633147431086e+00,2.421269182859920210e+00,3.175208851473717786e+00
5.756915075760613121e+00,5.845865084900806252e+00,5.784406981788733582e+00,6.757601779351515958e+00,5.343097383283081925e+00,3.031002155155847699e+00,3.510814373158886781e+00,4.634807843921959325e+00
3.974663384200718852e+00,3.408998370050533300e+00,2.923524887543102135e+00,3.796556395374051984e+00,2.827329051956133377e+00,1.125413587464068055e-01,2.388713611632495848e+00,3.795429307867359547e+00
-2.612982239126413475e+00,-1.451038239893180481e+00,-1.594639433976521303e+00,-1.783116282247244833e+00,1.380263105436982940e-01,7.587512594439287383e-01,-2.086852744814588156e+00,-1.922746542658972935e+00
-1.113925902571165416e+00,1.614641218551637447e+00,2.724716780910199976e+00,5.235535854969952219e+00,1.665089295416900317e+00,9.463678041025559651e+00,3.439979280936156236e-02,-1.170705332255510989e+00
2.336165614108162814e+00,2.991710406932102995e+00,2.929790435879652488e+00,2.986459073776688733e+00,1.869727749041280696e+00,1.130112239350101255e+01,3.215335416687436165e+00,1.654120945637705287e+00
-2.587469458253742527e+00,-2.591406095579761981e+00,-1.969222374573139867e+00,-4.912710587598809298e+00,1.261213230924420614e-01,-2.973251318852042857e+00,-2.923997008999591252e+00,-3.032324265068152780e+00
-2.546621421278385977e+00,-2.703890398936073414e+00,-2.494386205042311566e+00,-3.477703246885679889e+00,-3.005879495642162169e+00,-9.838934853596574825e+00,-3.583159122956486975e+00,-3.066905382925033230e+00
2.744686561399745095e-02,-2.884066905744271381e-01,-7.881816843384767957e-01,-2.534976868868068500e-01,1.728092449563721322e+00,-1.339580323043086496e+00,6.256823793290027247e-01,2.599848769771728740e-01
-1.235528949899327378e+00,-1.207516475436262171e+00,9.186914215553514396e-01,1.408494566391043090e+00,2.284680465100831004e+00,9.528349226865054922e-01,3.814812891015610941e-01,1.413605536508901750e-01
-7.415643581697357600e-01,-2.069794024400798627e+00,-2.660843573014200381e+00,-3.456441432727669127e+00,-2.234170580474956314e+00,-1.746893748427430504e+00,1.355202746520349333e+00,1.061880014263167471e+00
-1.890968709265887560e+00,-4.411584888056246712e+00,-5.736500758125776755e+00,-4.707256602210671659e+00,-8.146177896723390432e+00,-7.128388519513355170e+00,-1.240981194798582710e+00,-1.031790362368010250e+00
2.273148534776386676e+00,3.836416657392520690e-01,1.542229982207188321e-01,2.326100953659302029e+00,-2.667065615062869099e-01,3.285228502590662458e-01,1.367963078167731217e+00,2.304873775097965982e+00
-4.425416445525381381e-01,-5.919910753415567051e-01,-8.593589053535213296e-01,6.096174448438651527e-01,1.521741405052346785e+00,5.488501579767786076e+00,-2.043697674366962147e+00,-1.498444595269476265e+00
-1.330157544906313438e+00,-8.574880487682807750e-01,-1.207682435760141448e+00,-8.475307652476171683e-02,3.260139971748842402e+00,1.013926370649467046e+01,-1.571784724087713858e+00,-1.495705588265499042e+00
1.343860520377125889e+00,2.752150549281642267e-01,6.838219622977146361e-01,3.230375637115653342e-01,3.158207330156139747e+00,1.158034150406074048e+01,3.036956591462918187e-01,4.345812020348435167e-01
1.247501035012938519e+00,4.089676861859617985e-01,3.467449527070610715e-01,2.943862662571844480e-02,2.345562955935301730e+00,1.492907970617496360e+00,1.267035933700118022e-01,-1.678537597715401564e-01
1.367186292845711804e-01,6.735447548088577818e-01,1.797538007703070040e-01,-2.518679975153537143e+00,4.351124243241886180e-01,3.467514982312149385e+00,4.918566392463872283e-01,-6.196088842953667575e-02
-5.259033216095174712e-01,-8.445505407220114114e-01,-2.286010978498017376e+00,-3.904947360552115221e+00,8.386826838070150503e-01,6.857740564545000694e+00,1.578899696383922358e+00,1.185484513423447628e-01
-6.505576409589537423e-01,-5.148016084354389843e-01,3.913121607490015474e-01,1.109286951726295101e+00,2.160230355236046229e+00,4.120443142338906739e+00,7.352700979895931965e-02,-5.141243950698894949e-01
7.541268314509732562e-01,3.440941574451973572e+00,8.247050634854456774e+00,4.334864322277211635e+00,1.710275026468712767e+00,8.874469732199994354e-01,1.085079700701566674e+00,5.281101860621340016e-01
1.489480194674652758e-01,1.310130749775249459e+00,2.480038159421240174e+00,1.903165764438576435e+00,-5.438189869645569274e+00,-2.335639675981482810e+01,1.611581685400202080e+00,2.640326289450732888e-01
6.113634040670165248e+00,5.953684816924732282e+00,2.645652004616572128e+00,3.961337751367275839e+00,-1.193661948938943951e+01,-4.173158978903968830e+01,5.158296655650810969e+00,6.239610478686171469e+00
1.330343458335034645e+00,2.313053419159260660e+00,1.168957244999596856e+00,1.060007937929336563e+00,-9.731206747934825430e+00,-2.229131440332760050e+01,9.068539856488513351e-01,2.021988313893967160e+00
-1.794425896945046617e-01,-2.948042285661447437e-01,-1.123385940146000017e+00,1.319305592252781656e+00,3.560138230832691875e+00,-5.001546355807327870e+00,-1.457895580894353671e+00,5.902762317670693371e-01
-5.762637155322836158e-02,9.257800755025993311e-01,7.602887294006533958e-01,3.064048164883763636e+00,1.190377628548489852e+01,2.289734228448940812e+01,-2.115072175146533340e+00,-1.933967820600823728e-02
-4.235677371880647968e+00,-3.906026138015832760e+00,-3.464880456443940382e+00,-3.532385549945768588e+00,2.665368943644586430e+00,2.173923221041692244e+01,-4.336239825619633947e+00,-4.357293680593885554e+00
-3.447767194533125856e+00,-3.416493999851152541e+00,-3.315004380262435379e+00,-2.357407258282401052e+00,-2.110838010062465742e-02,8.041167104318873271e+00,-3.093555776621047748e+00,-3.245809419736437107e+00
-4.619955464685379098e-01,1.090556562723978828e-01,-5.490163637194451773e-01,7.658060619420645754e-01,5.370478364419276396e+00,1.545132565482385090e+01,-9.381479592215136165e-02,-3.810162790519742160e-01
-1.752989283716694047e+00,-1.403147284554113750e+00,-2.170616426997198811e+00,-1.528708187632225712e+00,2.709367412175758272e+00,1.245757636426109016e+01,-8.508535873331970478e-01,-2.409831290098104262e+00
-2.582708047745413626e+00,-3.697630308209813421e+00,-4.175311571825315760e+00,-4.463530765075305773e+00,-5.202317335209663440e+00,-8.554466156169205249e+00,-2.855903894739366233e+00,-3.283352777166891556e+00
2.889601730638962973e+00,2.469555763567899298e+00,1.883701027135581185e+00,-1.175341881990124682e+00,-5.452896349314010571e+00,-9.196174748234394514e+00,1.571283329995387668e+00,2.401788549731498801e+00
-1.298837644098344679e+00,-3.634485098617595611e+00,-3.821240414134738916e+00,-5.421759446779697456e+00,-6.149889172733752574e+00,-3.802350236450730669e+00,2.135573050808380891e-01,-9.595161902201075899e-01
-3.036887705923774217e-01,-1.581158003035691095e+00,-5.636490768407165231e-01,-3.327030445344720810e-01,1.532882784750423166e+00,9.308845216357502395e+00,2.089728099346717549e+00,1.559088022679642194e-01
-1.937353909450930889e+00,-2.361367297221439454e+00,-2.582923035453486005e-01,-7.256902820014343725e-02,-2.102482998729989561e+00,3.364439546629713895e-01,-1.431919520606558027e+00,-2.160853748151847054e+00
2.931734013496797298e-01,5.881312539021466002e-01,2.656049509536380526e+00,9.513613077424112330e-01,-2.291147537175620030e+00,-1.101943695588449756e+01,-6.336020658744072609e-01,-3.865010450252167606e-01
3.679414697658543787e+00,3.264007750799120533e+00,3.220729430712332864e+00,1.200406552789680115e+00,6.644614746545017603e+00,1.200854929219580480e+00,4.666551628071211155e+00,3.974296820983626688e+00
1.336521068879428231e-01,7.242178737111106823e-01,-2.268767922786332214e-01,4.383851053202136860e-02,5.276616579115998462e+00,3.181918437011390211e+00,-9.600441227779938913e-01,5.874885074055913314e-01
3.674582460822102714e+00,4.462433327658318127e+00,4.003840043320380460e+00,6.093761249030876570e+00,5.218545308835008001e+00,-1.529331681553677047e+00,6.694305238976114847e-01,3.937881208632423302e+00
2.103924545531001833e+00,1.772413001049700121e+00,2.107055243382220944e+00,4.955935512772338569e+00,3.236230711123627035e+00,-9.852105819040768431e-01,1.057455732716942931e+00,2.731492088845022259e+00
2.036768249145284315e+00,1.906137468019583725e+00,2.088732758169191239e+00,3.296054593009416056e+00,6.086247740198835743e-01,-3.852895361425244136e+00,1.388972345735689284e+00,2.054156301731861589e+00
-6.448480667351921269e-01,-8.752936282240777466e-01,-1.104772826632145488e+00,-6.589597091697259046e-01,-3.545721310544673432e+00,-4.454135819299162691e+00,-2.155341227220237688e-01,-1.530329064350676838e+00
1.485888227564922115e+00,1.633925359717105730e+00,1.769758842997548376e+00,1.434169848382055523e+00,-9.815762848681159891e-01,2.222558853565346215e+00,2.640104315862028095e+00,1.422757063606571393e+00
-2.292165434544252811e+00,-1.093518700215724948e+00,1.173882222775637363e-01,7.803244188542124427e-02,-3.261576173808779178e+00,1.085906136715820480e+00,1.984726212729894801e-01,-2.165852067860460473e+00
-2.516702016121764807e+00,-1.330990749005985352e+00,-2.328945124743607487e+00,-2.431724168006488718e+00,-2.712900155247645717e+00,8.804182707414782705e-01,-1.285753654087539166e+00,-2.344408378787670166e+00
1.580789177453790106e+00,2.791461708875450753e+00,6.855731248771794739e-01,-1.676661147437628063e-01,9.247455635250494410e-01,3.540444596169673996e+00,5.151331361282390775e-01,1.518495947002300728e+00
-2.580993118909311157e+00,-2.655011788047778598e+00,-2.945264472864657535e+00,-1.861185568820262537e+00,-2.891411743674265900e-01,2.453231978521981382e+00,-2.514072067564560697e+00,-2.177419720774402379e+00
1.048821665201929321e+00,1.226407963062496886e-01,2.834700143127526495e-01,8.578011140131498458e-01,-1.550953240489830076e+00,2.300652652896888029e+00,1.802629782877780418e+00,1.587645564432103029e+00
7.645259804265194248e-01,3.972231481166026423e-01,-4.314453200579100312e-01,-3.240237476738870193e+00,1.289937210184428196e+00,5.296758502869337804e+00,1.378148613385465460e+00,8.970338640685922016e-01
-3.239982259209846838e+00,-3.228047022782424502e+00,-2.724518565907079193e+00,-4.953176405770490121e+00,-1.970634829521024978e+00,-3.139936513121565298e+00,-5.163236529144226594e+00,-4.100054265550974186e+00
-3.108423855615689124e+00,-4.490394769091283322e+00,-4.676724692767259661e+00,-5.899794392688607836e+00,-4.744617805002025790e+00,-5.969248379359672896e+00,-3.931164446507833254e+00,-3.751006086960979147e+00
-1.296042619512171923e+00,-8.519259970527399695e-01,-1.253563586997553880e+00,-1.575365507307926016e+00,-1.634398199634240489e+00,-1.711767542839460088e+00,-1.904824155490551174e+00,-1.451978099464470873e+00
2.123080015491007888e+00,2.763747341650701905e+00,3.491920643043125327e+00,3.399703403079000985e+00,3.346191315868755289e+00,4.949626131425484132e+00,1.735502170816332512e+00,1.680557082348050901e+00
-1.793270795299586773e+00,-1.544713710844086929e+00,-4.219665946715981386e-01,4.271547446722199215e-01,3.496954734674844634e+00,9.496159179573414377e+00,-8.595249738105792403e-01,-1.601911618728386166e+00
1.078237852818297426e+00,8.485197573616218847e-01,1.336134197851219785e+00,2.141895536230848940e+00,3.890193747834092886e+00,1.082437411337635247e+01,2.892059404718231974e+00,1.382392331393253793e+00
1.671853341023035622e+00,2.011903318352971759e+00,2.345043643791264287e+00,1.889602873019101237e+00,-1.001238667206972188e+00,-2.430060563366237858e+01,3.737022805768337008e+00,2.741081994665454324e+00
2.581970788420127061e+00,2.238272708639832409e+00,1.841661043530141262e+00,1.740319826258309721e+00,-7.060667689746733977e+00,-4.316855354532921751e+01,1.322736169204581591e+00,2.499941423220835901e+00
2.219815691374899203e+00,3.162800870089616634e+00,1.446468567665445848e+00,1.909848646817631890e+00,-2.415083878425199337e+00,-1.197717504934965227e+01,2.773403228200514992e-01,2.183281319764183159e+00
-1.903458764507630185e+00,-1.986881710748713115e+00,-1.594772576036910472e+00,1.823262904102126214e+00,1.136024243666750699e+01,3.123427920868896379e+01,-1.447999248074119283e+00,-9.504335955697791327e-01
-4.923986794888642216e+00,-5.969958864906213414e+00,-4.601929146277941030e+00,-1.966375065744001560e+00,3.652824274522522785e+00,2.307049250183817435e+01,-5.183641193116284462e+00,-4.914445503223756617e+00
2.315468119453231832e+00,1.218278844732820332e+00,1.374596516299802396e+00,9.865869123627341031e-01,-1.582029181291868980e+00,5.053876231574783162e+00,8.349120895342498905e-02,1.066233257402749546e+00
3.637105417655046136e+00,3.545370485438318120e+00,2.532710366516231382e+00,2.191412056814574072e+00,-2.814485188484050493e+00,-1.248557320735388387e+00,1.889719740659119074e+00,3.248809667910866672e+00
2.300256592792486732e-01,-1.189192178787975562e-01,-7.544803049478450152e-01,-2.111299556200632921e+00,-5.419294848090409289e+00,-5.033521804948023259e+00,-4.241936099731520304e-01,-4.682215402475866650e-01
1.783304617240875078e+00,3.769958238446037280e-01,1.697910405526284194e-01,-5.432251622218894349e-01,5.155915112581417326e-01,5.969389169763998026e+00,1.723966905386518533e+00,1.300832410318053078e+00
-2.556700997552372456e+00,-2.749363458473768951e+00,-2.008841482507266463e+00,8.408200762641009351e-01,3.838630434676161940e+00,1.183017551135405476e+01,-5.870624439145277762e-01,-2.385450379236932150e+00
4.108241066196457458e-01,7.440279160728899832e-01,1.171094492295272849e+00,1.207508334761425939e+00,5.450552080533176413e-01,7.226613094996340081e+00,1.303306240967351703e+00,1.617066649709991699e-02
5.121883491081331563e+00,4.658157233400025632e+00,4.560319167206283275e+00,3.035983564716921101e+00,-6.614214413706936968e-03,-6.929611462258986165e+00,4.658053218689142128e+00,5.011699799021949175e+00
2.815981838125800607e+00,3.639093031554531787e+00,5.614552471253842825e+00,5.732931166773761689e+00,3.913642870163402954e+00,-6.943709906527916864e+00,3.931533641418545777e+00,3.626473768856135482e+00
-1.904441694449483524e+00,-2.793365541153578491e-01,9.706219245052474243e-01,9.451553430109311815e-01,4.705095694437861908e+00,6.947200601692746780e+00,8.885649673968436524e-01,-5.989968648219696767e-01
-6.575824650322514842e+00,-5.175134194105336150e+00,-5.763913243028642164e+00,-9.488333242515516019e+00,-2.823717314924726551e+00,-1.914951569825845135e-01,-5.728720211720892408e+00,-6.370202723730843175e+00
-5.198101306081772677e+00,-3.655387513725265158e+00,-6.141041068577774098e+00,-8.328922392052064083e+00,-7.279568965779341205e+00,-1.012740975749856176e+01,-4.926179511293472757e+00,-5.038119722466362305e+00
-1.479559478949453943e+00,-1.036807570756099528e+00,-2.570861458233148156e+00,-4.944949315483291308e+00,-9.001962178736945930e+00,-1.765947397031525412e+01,-2.702012062803827774e+00,-1.795958320186404666e+00
3.177168325482043976e+00,3.229234832759359630e+00,2.594048383562043369e+00,1.579370661670790099e+00,-4.927798680427775579e+00,-1.435728892883559560e+01,1.089498236353795058e+00,2.977413252945675382e+00
-2.663193895277334633e+00,-2.154490266351323680e+00,-2.082935671017385193e+00,9.752077000176284649e-01,-4.452420672743517827e-01,-5.876577929633159059e+00,-2.561383344007775342e+00,-1.721930983541273497e+00
-1.839578210902572231e+00,-2.369539920135074862e+00,-1.043122725753524493e+00,1.932819297108765433e+00,7.744353839770212744e+00,1.445732140465258198e+01,-6.089867070343903954e-01,-6.254171369004074554e-01
4.202836308201554072e-01,-5.342236414861212257e-01,8.124955762173651230e-01,2.372259589221275888e+00,5.973169176386932122e+00,1.133717640704447405e+01,1.351603649505376481e+00,4.118524182267676581e-01
-9.373366696654210628e-01,-2.398444823380889268e+00,-2.076542281678240176e+00,-2.155601758856926509e+00,-1.900735213401999246e+00,1.479791683498018706e+00,2.316367217147369262e-01,-1.508682557192495999e+00
3.877214815304621975e+00,3.106719611803570036e+00,3.397736574041282598e+00,2.831396885893668003e+00,3.486586426274763006e+00,1.612535562244145293e+00,3.361267904468070000e+00,3.094068767653393337e+00
4.221435793498891087e+00,3.212948212437893858e+00,3.523283630107695519e+00,3.232210790109783183e+00,5.471270622861930555e+00,4.864247203572020339e+00,2.925825672865638438e+00,3.142336448271546789e+00
-1.842477952516949902e+00,-2.220798872958576808e+00,-2.894798558150011747e+00,-3.000881212415854371e+00,-2.731179118858672261e+00,-2.039972699960723723e+00,-2.733200165453053110e+00,-1.952063377896117835e+00
-1.649993578427591423e+00,-2.734148836965920815e+00,-4.418374967389835817e+00,-4.891691892845904555e+00,-7.458629648359000441e+00,-6.574972982489005524e+00,-1.134968542678435943e+00,-1.509792160702179142e+00
4.016757375843116762e+00,3.742873055046366471e+00,2.460366229952124950e+00,2.447566392201879104e+00,7.318738129485735655e-02,-4.558352242005353494e-02,3.161660232155649730e+00,3.914087255958073719e+00
